Typical Measured Spectrum of Semrock FF01-405/10 Optical Filter
For wavelengths between 320 and 1120 nm, values near or below 3e-7 (Optical Density 6.5) are measurement noise limited.
For wavelengths < 320 nm and > 1120 nm, values near or below 3e-6 (Optical Density 5.5) are measurement noise limited. 
Data format:  Wavelength (nm) <tab> Transmission (0 to 1)
345.0	8.7688e-07
345.2	8.4824e-07
345.4	8.2054e-07
345.6	7.9374e-07
345.8	7.6782e-07
346.0	7.4274e-07
346.2	7.1848e-07
346.4	6.9502e-07
346.6	6.7232e-07
346.8	6.5036e-07
347.0	6.2912e-07
347.2	6.0858e-07
347.4	5.887e-07
347.6	5.6947e-07
347.8	5.5088e-07
348.0	5.1646e-07
348.2	4.8099e-07
348.4	4.4796e-07
348.6	4.172e-07
348.8	3.8855e-07
349.0	3.6187e-07
349.2	3.3701e-07
349.4	3.1387e-07
349.6	2.9232e-07
349.8	2.7224e-07
350.0	2.5355e-07
350.2	2.3613e-07
350.4	2.1992e-07
350.6	2.0481e-07
350.8	1.9075e-07
351.0	1.7765e-07
351.2	1.6545e-07
351.4	1.5409e-07
351.6	1.4351e-07
351.8	1.3365e-07
352.0	1.4101e-07
352.2	1.6773e-07
352.4	1.9951e-07
352.6	2.373e-07
352.8	2.8226e-07
353.0	3.3574e-07
353.2	3.9935e-07
353.4	4.7501e-07
353.6	5.65e-07
353.8	6.7205e-07
354.0	7.9937e-07
354.2	9.5082e-07
354.4	1.131e-06
354.6	1.3452e-06
354.8	1.6001e-06
355.0	1.9032e-06
355.2	1.9433e-06
355.4	1.9843e-06
355.6	2.0261e-06
355.8	2.0688e-06
356.0	2.1124e-06
356.2	2.1569e-06
356.4	2.2023e-06
356.6	2.2487e-06
356.8	2.2961e-06
357.0	2.3445e-06
357.2	2.3939e-06
357.4	2.4443e-06
357.6	2.4958e-06
357.8	2.5484e-06
358.0	2.634e-06
358.2	2.7297e-06
358.4	2.829e-06
358.6	2.9318e-06
358.8	3.0384e-06
359.0	3.1488e-06
359.2	3.2633e-06
359.4	3.382e-06
359.6	3.5049e-06
359.8	3.6323e-06
360.0	3.7644e-06
360.2	3.9012e-06
360.4	4.043e-06
360.6	4.19e-06
360.8	4.3424e-06
361.0	4.5002e-06
361.2	4.6638e-06
361.4	4.8334e-06
361.6	5.0091e-06
361.8	5.1912e-06
362.0	5.0543e-06
362.2	4.64e-06
362.4	4.2597e-06
362.6	3.9106e-06
362.8	3.5901e-06
363.0	3.2959e-06
363.2	3.0257e-06
363.4	2.7777e-06
363.6	2.5501e-06
363.8	2.3411e-06
364.0	2.1492e-06
364.2	1.973e-06
364.4	1.8113e-06
364.6	1.6629e-06
364.8	1.5266e-06
365.0	1.4015e-06
365.2	1.4135e-06
365.4	1.4257e-06
365.6	1.4379e-06
365.8	1.4503e-06
366.0	1.4628e-06
366.2	1.4753e-06
366.4	1.488e-06
366.6	1.5008e-06
366.8	1.5137e-06
367.0	1.5267e-06
367.2	1.5398e-06
367.4	1.5531e-06
367.6	1.5664e-06
367.8	1.5799e-06
368.0	1.5935e-06
368.2	1.6072e-06
368.4	1.621e-06
368.6	1.6349e-06
368.8	1.649e-06
369.0	1.6632e-06
369.2	1.6549e-06
369.4	1.6467e-06
369.6	1.6384e-06
369.8	1.6302e-06
370.0	1.622e-06
370.2	1.6139e-06
370.4	1.6058e-06
370.6	1.5978e-06
370.8	1.5898e-06
371.0	1.5818e-06
371.2	1.5739e-06
371.4	1.566e-06
371.6	1.5582e-06
371.8	1.5504e-06
372.0	1.5426e-06
372.2	1.5349e-06
372.4	1.5272e-06
372.6	1.5392e-06
372.8	1.5913e-06
373.0	1.6451e-06
373.2	1.7008e-06
373.4	1.7583e-06
373.6	1.8178e-06
373.8	1.8793e-06
374.0	1.9429e-06
374.2	2.0086e-06
374.4	2.0766e-06
374.6	2.1468e-06
374.8	2.2195e-06
375.0	2.2946e-06
375.2	2.3722e-06
375.4	2.4525e-06
375.6	2.5355e-06
375.8	2.6212e-06
376.0	2.7099e-06
376.2	2.8096e-06
376.4	2.9145e-06
376.6	3.0233e-06
376.8	3.1362e-06
377.0	3.2533e-06
377.2	3.3748e-06
377.4	3.5008e-06
377.6	3.6316e-06
377.8	3.7672e-06
378.0	3.9078e-06
378.2	4.0538e-06
378.4	4.2051e-06
378.6	4.3622e-06
378.8	4.5251e-06
379.0	4.694e-06
379.2	4.8693e-06
379.4	5.0511e-06
379.6	5.2397e-06
379.8	5.4354e-06
380.0	5.6384e-06
380.2	4.0944e-06
380.4	2.816e-06
380.6	3.2061e-06
380.8	3.8366e-06
381.0	4.0168e-06
381.2	5.6229e-06
381.4	5.6135e-06
381.6	7.5817e-06
381.8	7.5766e-06
382.0	7.3993e-06
382.2	8.0108e-06
382.4	9.9644e-06
382.6	8.8682e-06
382.8	7.5311e-06
383.0	5.1066e-06
383.2	5.2121e-06
383.4	5.6972e-06
383.6	5.052e-06
383.8	4.0357e-06
384.0	3.0153e-06
384.2	3.8195e-06
384.4	3.0656e-06
384.6	3.3976e-06
384.8	6.4367e-06
385.0	6.1661e-06
385.2	7.6414e-06
385.4	8.8026e-06
385.6	8.7681e-06
385.8	7.4947e-06
386.0	7.0426e-06
386.2	8.0188e-06
386.4	8.2143e-06
386.6	8.9122e-06
386.8	9.8108e-06
387.0	1.0505e-05
387.2	1.0123e-05
387.4	8.8658e-06
387.6	8.2213e-06
387.8	6.9407e-06
388.0	6.9456e-06
388.2	7.1514e-06
388.4	7.182e-06
388.6	9.4269e-06
388.8	1.265e-05
389.0	1.4722e-05
389.2	1.3023e-05
389.4	1.032e-05
389.6	8.2801e-06
389.8	7.41e-06
390.0	4.2732e-06
390.2	1.9565e-06
390.4	3.3905e-06
390.6	1.573e-06
390.8	1.0584e-06
391.0	2.5111e-06
391.2	1.627e-06
391.4	1.8504e-06
391.6	1.2202e-06
391.8	1.6463e-06
392.0	1.5944e-06
392.2	1.1809e-06
392.4	1.8608e-06
392.6	2.3291e-06
392.8	3.7329e-06
393.0	5.3689e-06
393.2	6.6353e-06
393.4	8.1002e-06
393.6	1.0217e-05
393.8	1.457e-05
394.0	1.7886e-05
394.2	2.0606e-05
394.4	2.356e-05
394.6	2.7092e-05
394.8	3.1124e-05
395.0	3.7486e-05
395.2	4.3996e-05
395.4	5.7139e-05
395.6	7.8195e-05
395.8	1.0644e-04
396.0	1.5243e-04
396.2	2.3624e-04
396.4	3.6936e-04
396.6	6.2358e-04
396.8	0.00113
397.0	0.00221
397.2	0.00506
397.4	0.01088
397.6	0.02578
397.8	0.06627
398.0	0.17568
398.2	0.39939
398.4	0.66333
398.6	0.83281
398.8	0.90115
399.0	0.9348
399.2	0.94204
399.4	0.93783
399.6	0.93633
399.8	0.9389
400.0	0.94404
400.2	0.95076
400.4	0.95271
400.6	0.95306
400.8	0.95228
401.0	0.95238
401.2	0.95455
401.4	0.95484
401.6	0.95521
401.8	0.95449
402.0	0.95555
402.2	0.95363
402.4	0.95394
402.6	0.9556
402.8	0.95664
403.0	0.95579
403.2	0.95598
403.4	0.95362
403.6	0.95413
403.8	0.95571
404.0	0.95501
404.2	0.95536
404.4	0.95341
404.6	0.95193
404.8	0.94943
405.0	0.94729
405.2	0.94459
405.4	0.94441
405.6	0.94596
405.8	0.94863
406.0	0.95107
406.2	0.95354
406.4	0.95392
406.6	0.95501
406.8	0.95537
407.0	0.95366
407.2	0.95398
407.4	0.9535
407.6	0.95299
407.8	0.9528
408.0	0.95143
408.2	0.95174
408.4	0.94851
408.6	0.94696
408.8	0.94383
409.0	0.94061
409.2	0.93694
409.4	0.93432
409.6	0.93529
409.8	0.93674
410.0	0.94025
410.2	0.94177
410.4	0.9419
410.6	0.9387
410.8	0.93284
411.0	0.9287
411.2	0.9307
411.4	0.93916
411.6	0.90914
411.8	0.76427
412.0	0.51233
412.2	0.28469
412.4	0.14548
412.6	0.07505
412.8	0.04084
413.0	0.02217
413.2	0.01292
413.4	0.00783
413.6	0.0049
413.8	0.00311
414.0	0.00194
414.2	0.00123
414.4	6.4563e-04
414.6	3.6746e-04
414.8	2.242e-04
415.0	1.3888e-04
415.2	8.858e-05
415.4	5.8429e-05
415.6	3.8125e-05
415.8	2.4665e-05
416.0	1.6991e-05
416.2	1.2219e-05
416.4	7.8289e-06
416.6	6.2015e-06
416.8	5.2656e-06
417.0	4.3347e-06
417.2	3.2709e-06
417.4	2.5401e-06
417.6	1.6662e-06
417.8	2.1865e-06
418.0	1.8376e-06
418.2	1.4461e-06
418.4	1.3463e-06
418.6	1.2605e-06
418.8	1.1262e-06
419.0	1.4993e-06
419.2	2.0109e-06
419.4	1.9377e-06
419.6	1.681e-06
419.8	2.1564e-06
420.0	2.3791e-06
420.2	2.1839e-06
420.4	2.2073e-06
420.6	2.8159e-06
420.8	1.7514e-06
421.0	1.032e-06
421.2	1.5315e-06
421.4	1.4316e-06
421.6	1.5501e-06
421.8	1.1335e-06
422.0	8.7765e-07
422.2	1.0449e-06
422.4	1.1732e-06
422.6	8.7971e-07
422.8	1.6565e-06
423.0	1.7899e-06
423.2	3.0655e-06
423.4	3.6792e-06
423.6	3.6869e-06
423.8	2.6045e-06
424.0	2.107e-06
424.2	1.1705e-06
424.4	1.2773e-06
424.6	5.9605e-07
424.8	3.7046e-07
425.0	8.0636e-07
425.2	1.9254e-07
425.4	6.2804e-07
425.6	6.3126e-07
425.8	1.4286e-06
426.0	2.0341e-07
426.2	8.418e-07
426.4	8.965e-07
426.6	1.7954e-06
426.8	2.4115e-06
427.0	3.8839e-06
427.2	3.4487e-06
427.4	2.381e-06
427.6	1.6299e-06
427.8	5.2812e-07
428.0	5.5159e-07
428.2	5.7792e-07
428.4	6.0551e-07
428.6	6.3441e-07
428.8	6.647e-07
429.0	6.9643e-07
429.2	7.2967e-07
429.4	7.645e-07
429.6	8.01e-07
429.8	8.3923e-07
430.0	8.7929e-07
430.2	9.2127e-07
430.4	9.6525e-07
430.6	1.0113e-06
430.8	1.0596e-06
431.0	1.1102e-06
431.2	1.1504e-06
431.4	1.191e-06
431.6	1.233e-06
431.8	1.2764e-06
432.0	1.3214e-06
432.2	1.368e-06
432.4	1.4162e-06
432.6	1.4662e-06
432.8	1.5179e-06
433.0	1.5714e-06
433.2	1.6268e-06
433.4	1.6841e-06
433.6	1.7435e-06
433.8	1.805e-06
434.0	1.8686e-06
434.2	1.9345e-06
434.4	2.0027e-06
434.6	2.0733e-06
434.8	2.1464e-06
435.0	2.222e-06
435.2	2.1971e-06
435.4	2.129e-06
435.6	2.063e-06
435.8	1.9991e-06
436.0	1.9372e-06
436.2	1.8772e-06
436.4	1.819e-06
436.6	1.7627e-06
436.8	1.7081e-06
437.0	1.6552e-06
437.2	1.6039e-06
437.4	1.5542e-06
437.6	1.5061e-06
437.8	1.4594e-06
438.0	1.4142e-06
438.2	1.3601e-06
438.4	1.3081e-06
438.6	1.2581e-06
438.8	1.21e-06
439.0	1.1638e-06
439.2	1.1193e-06
439.4	1.0765e-06
439.6	1.0354e-06
439.8	9.9577e-07
440.0	9.5771e-07
440.2	9.211e-07
440.4	8.8588e-07
440.6	8.5202e-07
440.8	8.1945e-07
441.0	7.8812e-07
441.2	7.8069e-07
441.4	7.7518e-07
441.6	7.6971e-07
441.8	7.6427e-07
442.0	7.5888e-07
442.2	7.5352e-07
442.4	7.482e-07
442.6	7.4292e-07
442.8	7.3768e-07
443.0	7.3247e-07
443.2	7.273e-07
443.4	7.2217e-07
443.6	7.1707e-07
443.8	7.1201e-07
444.0	7.0698e-07
444.2	7.0199e-07
444.4	6.9703e-07
444.6	6.9211e-07
444.8	6.8723e-07
445.0	6.8238e-07
445.2	6.4028e-07
445.4	5.8704e-07
445.6	5.3823e-07
445.8	4.9348e-07
446.0	4.5245e-07
446.2	4.1484e-07
446.4	3.8035e-07
446.6	3.4872e-07
446.8	3.1973e-07
447.0	2.9315e-07
447.2	2.6877e-07
447.4	2.4643e-07
447.6	2.2594e-07
447.8	2.0715e-07
448.0	1.8993e-07
448.2	1.8674e-07
448.4	1.8359e-07
448.6	1.8051e-07
448.8	1.7747e-07
449.0	1.7448e-07
449.2	1.7155e-07
449.4	1.6866e-07
449.6	1.6582e-07
449.8	1.6303e-07
450.0	1.6029e-07
450.2	1.5759e-07
450.4	1.5494e-07
450.6	1.5234e-07
450.8	1.4977e-07
451.0	1.4725e-07
451.2	1.4781e-07
451.4	1.4864e-07
451.6	1.4948e-07
451.8	1.5032e-07
452.0	1.5116e-07
452.2	1.5201e-07
452.4	1.5286e-07
452.6	1.5372e-07
452.8	1.5459e-07
453.0	1.5545e-07
453.2	1.5633e-07
453.4	1.572e-07
453.6	1.5809e-07
453.8	1.5898e-07
454.0	1.5987e-07
454.2	1.6077e-07
454.4	1.6167e-07
454.6	1.6258e-07
454.8	1.6349e-07
455.0	1.6441e-07
455.2	1.5987e-07
455.4	1.5343e-07
455.6	1.4725e-07
455.8	1.4132e-07
456.0	1.3564e-07
456.2	1.3018e-07
456.4	1.2493e-07
456.6	1.1991e-07
456.8	1.1508e-07
457.0	1.1045e-07
457.2	1.06e-07
457.4	1.0173e-07
457.6	9.7636e-08
457.8	9.3706e-08
458.0	8.9933e-08
458.2	9.128e-08
458.4	9.2647e-08
458.6	9.4034e-08
458.8	9.5442e-08
459.0	9.6871e-08
459.2	9.8321e-08
459.4	9.9793e-08
459.6	1.0129e-07
459.8	1.028e-07
460.0	1.0434e-07
460.2	1.0591e-07
460.4	1.0749e-07
460.6	1.091e-07
460.8	1.1073e-07
461.0	1.1239e-07
461.2	1.0882e-07
461.4	1.0488e-07
461.6	1.0107e-07
461.8	9.7407e-08
462.0	9.3875e-08
462.2	9.047e-08
462.4	8.7189e-08
462.6	8.4027e-08
462.8	8.098e-08
463.0	7.8043e-08
463.2	7.5213e-08
463.4	7.2485e-08
463.6	6.9857e-08
463.8	6.7323e-08
464.0	6.4882e-08
464.2	6.2529e-08
464.4	6.0261e-08
464.6	5.8076e-08
464.8	5.597e-08
465.0	5.394e-08
465.2	5.0529e-08
465.4	4.6813e-08
465.6	4.3371e-08
465.8	4.0182e-08
466.0	3.7227e-08
466.2	3.449e-08
466.4	3.1954e-08
466.6	2.9604e-08
466.8	2.7427e-08
467.0	2.5411e-08
467.2	2.3542e-08
467.4	2.1811e-08
467.6	2.0207e-08
467.8	1.8721e-08
468.0	1.7345e-08
468.2	1.9481e-08
468.4	2.188e-08
468.6	2.4574e-08
468.8	2.76e-08
469.0	3.0999e-08
469.2	3.4817e-08
469.4	3.9104e-08
469.6	4.392e-08
469.8	4.9328e-08
470.0	5.5403e-08
470.2	6.2225e-08
470.4	6.9888e-08
470.6	7.8495e-08
470.8	8.8161e-08
471.0	9.9018e-08
471.2	9.1263e-08
471.4	8.2584e-08
471.6	7.4731e-08
471.8	6.7625e-08
472.0	6.1194e-08
472.2	5.5375e-08
472.4	5.0109e-08
472.6	4.5344e-08
472.8	4.1032e-08
473.0	3.7131e-08
473.2	3.36e-08
473.4	3.0405e-08
473.6	2.7513e-08
473.8	2.4897e-08
474.0	2.253e-08
474.2	2.0387e-08
474.4	1.8449e-08
474.6	1.6694e-08
474.8	1.5107e-08
475.0	1.367e-08
475.2	1.3893e-08
475.4	1.4708e-08
475.6	1.5571e-08
475.8	1.6484e-08
476.0	1.7451e-08
476.2	1.8474e-08
476.4	1.9557e-08
476.6	2.0704e-08
476.8	2.1919e-08
477.0	2.3204e-08
477.2	2.4565e-08
477.4	2.6006e-08
477.6	2.7531e-08
477.8	2.9145e-08
478.0	3.0854e-08
478.2	3.2664e-08
478.4	3.458e-08
478.6	3.6608e-08
478.8	3.823e-08
479.0	3.965e-08
479.2	4.1123e-08
479.4	4.2651e-08
479.6	4.4236e-08
479.8	4.588e-08
480.0	4.7584e-08
480.2	4.9353e-08
480.4	5.1186e-08
480.6	5.3088e-08
480.8	5.5061e-08
481.0	5.7107e-08
481.2	5.9229e-08
481.4	6.1429e-08
481.6	6.3712e-08
481.8	6.6079e-08
482.0	6.8534e-08
482.2	6.8989e-08
482.4	6.9178e-08
482.6	6.9368e-08
482.8	6.9558e-08
483.0	6.9749e-08
483.2	6.994e-08
483.4	7.0131e-08
483.6	7.0323e-08
483.8	7.0516e-08
484.0	7.0709e-08
484.2	7.0903e-08
484.4	7.1097e-08
484.6	7.1292e-08
484.8	7.1487e-08
485.0	7.1683e-08
485.2	7.188e-08
485.4	7.2077e-08
485.6	7.2274e-08
485.8	7.2472e-08
486.0	7.2671e-08
486.2	6.8958e-08
486.4	6.4079e-08
486.6	5.9545e-08
486.8	5.5332e-08
487.0	5.1418e-08
487.2	4.778e-08
487.4	4.4399e-08
487.6	4.1258e-08
487.8	3.8339e-08
488.0	3.5626e-08
488.2	3.9234e-08
488.4	4.3207e-08
488.6	4.7582e-08
488.8	5.24e-08
489.0	5.7707e-08
489.2	6.355e-08
489.4	6.9985e-08
489.6	7.7072e-08
489.8	8.4876e-08
490.0	9.3471e-08
490.2	1.0014e-07
490.4	1.0061e-07
490.6	1.0108e-07
490.8	1.0155e-07
491.0	1.0202e-07
491.2	1.025e-07
491.4	1.0298e-07
491.6	1.0346e-07
491.8	1.0394e-07
492.0	1.0443e-07
492.2	1.0492e-07
492.4	1.0541e-07
492.6	1.059e-07
492.8	1.064e-07
493.0	1.0689e-07
493.2	1.0739e-07
493.4	1.0789e-07
493.6	1.084e-07
493.8	1.089e-07
494.0	1.0941e-07
494.2	1.1035e-07
494.4	1.1301e-07
494.6	1.1574e-07
494.8	1.1854e-07
495.0	1.214e-07
495.2	1.2433e-07
495.4	1.2734e-07
495.6	1.3041e-07
495.8	1.3356e-07
496.0	1.3679e-07
496.2	1.4009e-07
496.4	1.4347e-07
496.6	1.4694e-07
496.8	1.5049e-07
497.0	1.5412e-07
497.2	1.5785e-07
497.4	1.6166e-07
497.6	1.6556e-07
497.8	1.6956e-07
498.0	1.7366e-07
498.2	1.7688e-07
498.4	1.7234e-07
498.6	1.6792e-07
498.8	1.6362e-07
499.0	1.5942e-07
499.2	1.5533e-07
499.4	1.5135e-07
499.6	1.4747e-07
499.8	1.4369e-07
500.0	1.4e-07
500.2	1.3493e-07
500.4	1.3004e-07
500.6	1.2533e-07
500.8	1.208e-07
501.0	1.1642e-07
501.2	1.1221e-07
501.4	1.0814e-07
501.6	1.0423e-07
501.8	1.0045e-07
502.0	9.6813e-08
502.2	9.3307e-08
502.4	8.9928e-08
502.6	8.6671e-08
502.8	8.3532e-08
503.0	8.2709e-08
503.2	8.4373e-08
503.4	8.607e-08
503.6	8.7801e-08
503.8	8.9567e-08
504.0	9.1368e-08
504.2	9.3206e-08
504.4	9.5081e-08
504.6	9.6993e-08
504.8	9.8944e-08
505.0	1.0093e-07
505.2	1.0296e-07
505.4	1.0504e-07
505.6	1.0715e-07
505.8	1.093e-07
506.0	1.115e-07
506.2	1.1374e-07
506.4	1.1603e-07
506.6	1.1837e-07
506.8	1.2075e-07
507.0	1.2213e-07
507.2	1.214e-07
507.4	1.2067e-07
507.6	1.1995e-07
507.8	1.1923e-07
508.0	1.1852e-07
508.2	1.1781e-07
508.4	1.171e-07
508.6	1.164e-07
508.8	1.1571e-07
509.0	1.1501e-07
509.2	1.1433e-07
509.4	1.1364e-07
509.6	1.1296e-07
509.8	1.1229e-07
510.0	1.1161e-07
510.2	1.1095e-07
510.4	1.1028e-07
510.6	1.0962e-07
510.8	1.0897e-07
511.0	1.1032e-07
511.2	1.2051e-07
511.4	1.3163e-07
511.6	1.4378e-07
511.8	1.5705e-07
512.0	1.7154e-07
512.2	1.8737e-07
512.4	2.0466e-07
512.6	2.2355e-07
512.8	2.4419e-07
513.0	2.6672e-07
513.2	2.9134e-07
513.4	3.1823e-07
513.6	3.476e-07
513.8	3.7968e-07
514.0	4.1472e-07
514.2	4.5299e-07
514.4	4.948e-07
514.6	5.4047e-07
514.8	5.9035e-07
515.0	6.4062e-07
515.2	6.4118e-07
515.4	6.4175e-07
515.6	6.4231e-07
515.8	6.4288e-07
516.0	6.4344e-07
516.2	6.4401e-07
516.4	6.4458e-07
516.6	6.4515e-07
516.8	6.4571e-07
517.0	6.4628e-07
517.2	6.4685e-07
517.4	6.4742e-07
517.6	6.4799e-07
517.8	6.4856e-07
518.0	6.4913e-07
518.2	6.4971e-07
518.4	6.5028e-07
518.6	6.5085e-07
518.8	6.5142e-07
519.0	6.52e-07
519.2	6.6488e-07
519.4	6.7848e-07
519.6	6.9236e-07
519.8	7.0652e-07
520.0	7.2097e-07
520.2	7.3571e-07
520.4	7.5076e-07
520.6	7.6611e-07
520.8	7.8178e-07
521.0	7.9777e-07
521.2	8.1409e-07
521.4	8.3074e-07
521.6	8.4773e-07
521.8	8.6507e-07
522.0	8.8276e-07
522.2	9.0081e-07
522.4	9.1924e-07
522.6	9.3804e-07
522.8	9.5722e-07
523.0	9.768e-07
523.2	1.094e-06
523.4	1.2433e-06
523.6	1.4129e-06
523.8	1.6056e-06
524.0	1.8246e-06
524.2	2.0735e-06
524.4	2.3563e-06
524.6	2.6777e-06
524.8	3.043e-06
525.0	3.4581e-06
525.2	3.9298e-06
525.4	4.4658e-06
525.6	5.075e-06
525.8	5.7673e-06
526.0	6.554e-06
526.2	7.448e-06
526.4	8.4639e-06
526.6	9.6185e-06
526.8	1.0931e-05
527.0	1.2422e-05
527.2	1.1525e-05
527.4	1.0099e-05
527.6	8.8498e-06
527.8	7.7548e-06
528.0	6.7954e-06
528.2	5.9546e-06
528.4	5.2179e-06
528.6	4.5723e-06
528.8	4.0066e-06
529.0	3.5109e-06
529.2	3.0765e-06
529.4	2.6959e-06
529.6	2.3623e-06
529.8	2.07e-06
530.0	1.8139e-06
530.2	1.5895e-06
530.4	1.3928e-06
530.6	1.2205e-06
530.8	1.0695e-06
531.0	9.3717e-07
531.2	9.0132e-07
531.4	9.0128e-07
531.6	9.0123e-07
531.8	9.0118e-07
532.0	9.0113e-07
532.2	9.0108e-07
532.4	9.0103e-07
532.6	9.0098e-07
532.8	9.0093e-07
533.0	9.0088e-07
533.2	9.0083e-07
533.4	9.0078e-07
533.6	9.0073e-07
533.8	9.0068e-07
534.0	9.0063e-07
534.2	9.0059e-07
534.4	9.0054e-07
534.6	9.0049e-07
534.8	9.0044e-07
535.0	9.0039e-07
535.2	8.5027e-07
535.4	7.7805e-07
535.6	7.1197e-07
535.8	6.5149e-07
536.0	5.9616e-07
536.2	5.4552e-07
536.4	4.9919e-07
536.6	4.5679e-07
536.8	4.1799e-07
537.0	3.8249e-07
537.2	3.5e-07
537.4	3.2027e-07
537.6	2.9307e-07
537.8	2.6818e-07
538.0	2.454e-07
538.2	2.2455e-07
538.4	2.0548e-07
538.6	1.8803e-07
538.8	1.7206e-07
539.0	1.5744e-07
539.2	1.5314e-07
539.4	1.5528e-07
539.6	1.5745e-07
539.8	1.5964e-07
540.0	1.6187e-07
540.2	1.6413e-07
540.4	1.6642e-07
540.6	1.6874e-07
540.8	1.7109e-07
541.0	1.7348e-07
541.2	1.759e-07
541.4	1.7835e-07
541.6	1.8084e-07
541.8	1.8337e-07
542.0	1.8592e-07
542.2	1.8852e-07
542.4	1.9115e-07
542.6	1.9382e-07
542.8	1.9652e-07
543.0	1.9926e-07
543.2	1.9747e-07
543.4	1.9569e-07
543.6	1.9392e-07
543.8	1.9257e-07
544.0	2.1859e-07
544.2	2.4813e-07
544.4	2.8165e-07
544.6	3.1971e-07
544.8	3.6292e-07
545.0	4.1196e-07
545.2	4.6763e-07
545.4	5.3082e-07
545.6	6.0255e-07
545.8	6.8397e-07
546.0	7.764e-07
546.2	8.8131e-07
546.4	1.0004e-06
546.6	1.1356e-06
546.8	1.289e-06
547.0	1.4632e-06
547.2	1.661e-06
547.4	1.8854e-06
547.6	2.1402e-06
547.8	2.4294e-06
548.0	2.4474e-06
548.2	2.4238e-06
548.4	2.4005e-06
548.6	2.3774e-06
548.8	2.3545e-06
549.0	2.3319e-06
549.2	2.3094e-06
549.4	2.2872e-06
549.6	2.2652e-06
549.8	2.2434e-06
550.0	2.2218e-06
550.2	2.2004e-06
550.4	2.1793e-06
550.6	2.1583e-06
550.8	2.1375e-06
551.0	2.1169e-06
551.2	2.0966e-06
551.4	2.0764e-06
551.6	2.0564e-06
551.8	2.0366e-06
552.0	1.9196e-06
552.2	1.779e-06
552.4	1.6486e-06
552.6	1.5278e-06
552.8	1.4159e-06
553.0	1.3122e-06
553.2	1.216e-06
553.4	1.1269e-06
553.6	1.0443e-06
553.8	9.6782e-07
554.0	8.9691e-07
554.2	8.3119e-07
554.4	7.7029e-07
554.6	7.1385e-07
554.8	6.6155e-07
555.0	6.1308e-07
555.2	5.6816e-07
555.4	5.2653e-07
555.6	4.8795e-07
555.8	4.522e-07
556.0	4.6529e-07
556.2	5.091e-07
556.4	5.5703e-07
556.6	6.0948e-07
556.8	6.6687e-07
557.0	7.2966e-07
557.2	7.9836e-07
557.4	8.7353e-07
557.6	9.5578e-07
557.8	1.0458e-06
558.0	1.1442e-06
558.2	1.252e-06
558.4	1.3699e-06
558.6	1.4988e-06
558.8	1.64e-06
559.0	1.7944e-06
559.2	1.9633e-06
559.4	2.1482e-06
559.6	2.3505e-06
559.8	2.5718e-06
560.0	2.5739e-06
560.2	2.3802e-06
560.4	2.2011e-06
560.6	2.0355e-06
560.8	1.8823e-06
561.0	1.7406e-06
561.2	1.6096e-06
561.4	1.4885e-06
561.6	1.3765e-06
561.8	1.2729e-06
562.0	1.1771e-06
562.2	1.0885e-06
562.4	1.0066e-06
562.6	9.3086e-07
562.8	8.6081e-07
563.0	7.9603e-07
563.2	7.3613e-07
563.4	6.8073e-07
563.6	6.295e-07
563.8	5.8213e-07
564.0	5.4676e-07
564.2	5.2379e-07
564.4	5.0179e-07
564.6	4.8071e-07
564.8	4.6052e-07
565.0	4.4117e-07
565.2	4.2264e-07
565.4	4.0489e-07
565.6	3.8788e-07
565.8	3.7159e-07
566.0	3.5598e-07
566.2	3.4102e-07
566.4	3.267e-07
566.6	3.1298e-07
566.8	2.9983e-07
567.0	2.8723e-07
567.2	2.7517e-07
567.4	2.6361e-07
