Typical Measured Spectrum of Semrock FF01-650/150 Optical Filter	
"For wavelengths between 320 and 1120 nm, values near or below 3e-7 (Optical Density 6.5) are measurement noise limited."	
"For wavelengths < 320 nm and > 1120 nm, values near or below 3e-6 (Optical Density 5.5) are measurement noise limited. "	
Data format:  Wavelength (nm) <tab> Transmission (0 to 1)	
371	1.41E-07
371.2	1.32E-07
371.4	1.24E-07
371.6	1.16E-07
371.8	1.09E-07
372	1.02E-07
372.2	9.55E-08
372.4	8.95E-08
372.6	8.39E-08
372.8	7.87E-08
373	7.37E-08
373.2	6.91E-08
373.4	6.48E-08
373.6	6.07E-08
373.8	5.69E-08
374	5.33E-08
374.2	5.00E-08
374.4	4.68E-08
374.6	4.39E-08
374.8	4.11E-08
375	3.86E-08
375.2	3.96E-08
375.4	4.15E-08
375.6	4.34E-08
375.8	4.54E-08
376	4.75E-08
376.2	4.98E-08
376.4	5.21E-08
376.6	5.45E-08
376.8	5.71E-08
377	5.98E-08
377.2	6.26E-08
377.4	6.55E-08
377.6	6.85E-08
377.8	7.17E-08
378	7.51E-08
378.2	7.86E-08
378.4	8.23E-08
378.6	8.61E-08
378.8	9.02E-08
379	9.44E-08
379.2	9.88E-08
379.4	1.03E-07
379.6	1.08E-07
379.8	1.13E-07
380	1.19E-07
380.2	1.20E-07
380.4	1.21E-07
380.6	1.22E-07
380.8	1.23E-07
381	1.24E-07
381.2	1.25E-07
381.4	1.26E-07
381.6	1.27E-07
381.8	1.28E-07
382	1.29E-07
382.2	1.30E-07
382.4	1.31E-07
382.6	1.32E-07
382.8	1.34E-07
383	1.35E-07
383.2	1.36E-07
383.4	1.37E-07
383.6	1.38E-07
383.8	1.39E-07
384	1.40E-07
384.2	1.41E-07
384.4	1.59E-07
384.6	1.87E-07
384.8	2.21E-07
385	2.61E-07
385.2	3.08E-07
385.4	3.64E-07
385.6	4.30E-07
385.8	5.07E-07
386	5.99E-07
386.2	7.07E-07
386.4	8.35E-07
386.6	9.86E-07
386.8	1.16E-06
387	1.37E-06
387.2	1.62E-06
387.4	1.91E-06
387.6	2.26E-06
387.8	2.67E-06
388	3.15E-06
388.2	3.71E-06
388.4	4.38E-06
388.6	5.17E-06
388.8	6.09E-06
389	7.19E-06
389.2	8.48E-06
389.4	1.00E-05
389.6	1.18E-05
389.8	1.39E-05
390	1.64E-05
390.2	1.94E-05
390.4	2.28E-05
390.6	2.66E-05
390.8	2.64E-05
391	2.62E-05
391.2	2.59E-05
391.4	2.57E-05
391.6	2.55E-05
391.8	2.53E-05
392	2.51E-05
392.2	2.49E-05
392.4	2.47E-05
392.6	2.45E-05
392.8	2.43E-05
393	2.41E-05
393.2	2.39E-05
393.4	2.37E-05
393.6	2.23E-05
393.8	2.10E-05
394	1.98E-05
394.2	1.86E-05
394.4	1.75E-05
394.6	1.65E-05
394.8	1.55E-05
395	1.46E-05
395.2	1.38E-05
395.4	1.30E-05
395.6	1.22E-05
395.8	1.15E-05
396	1.08E-05
396.2	1.02E-05
396.4	9.60E-06
396.6	9.04E-06
396.8	8.51E-06
397	8.01E-06
397.2	7.54E-06
397.4	7.10E-06
397.6	6.69E-06
397.8	6.29E-06
398	5.93E-06
398.2	5.58E-06
398.4	5.25E-06
398.6	5.19E-06
398.8	5.22E-06
399	5.24E-06
399.2	5.27E-06
399.4	5.30E-06
399.6	5.33E-06
399.8	5.35E-06
400	5.38E-06
400.2	5.41E-06
400.4	5.44E-06
400.6	5.47E-06
400.8	5.50E-06
401	5.53E-06
401.2	5.55E-06
401.4	5.58E-06
401.6	5.61E-06
401.8	5.64E-06
402	5.67E-06
402.2	5.70E-06
402.4	5.73E-06
402.6	5.76E-06
402.8	5.79E-06
403	5.82E-06
403.2	5.85E-06
403.4	5.88E-06
403.6	5.09E-06
403.8	3.77E-06
404	2.79E-06
404.2	2.07E-06
404.4	1.53E-06
404.6	1.14E-06
404.8	8.41E-07
405	6.23E-07
405.2	4.61E-07
405.4	3.42E-07
405.6	2.53E-07
405.8	1.88E-07
406	1.39E-07
406.2	1.03E-07
406.4	7.62E-08
406.6	5.65E-08
406.8	4.18E-08
407	3.10E-08
407.2	2.30E-08
407.4	1.70E-08
407.6	1.26E-08
407.8	1.04E-08
408	1.18E-08
408.2	1.33E-08
408.4	1.51E-08
408.6	1.71E-08
408.8	1.93E-08
409	2.18E-08
409.2	2.47E-08
409.4	2.80E-08
409.6	3.17E-08
409.8	3.58E-08
410	4.06E-08
410.2	4.59E-08
410.4	5.20E-08
410.6	5.88E-08
410.8	6.66E-08
411	7.54E-08
411.2	8.53E-08
411.4	9.65E-08
411.6	1.00E-07
411.8	1.00E-07
412	1.00E-07
412.2	1.00E-07
412.4	1.00E-07
412.6	1.00E-07
412.8	1.00E-07
413	1.00E-07
413.2	1.00E-07
413.4	1.00E-07
413.6	1.00E-07
413.8	1.00E-07
414	1.00E-07
414.2	1.00E-07
414.4	1.00E-07
414.6	1.00E-07
414.8	1.00E-07
415	1.00E-07
415.2	1.00E-07
415.4	1.00E-07
415.6	1.00E-07
415.8	1.00E-07
416	1.00E-07
416.2	1.00E-07
416.4	1.00E-07
416.6	1.00E-07
416.8	1.00E-07
417	1.00E-07
417.2	1.00E-07
417.4	1.00E-07
417.6	1.00E-07
417.8	1.00E-07
418	1.00E-07
418.2	1.00E-07
418.4	1.00E-07
418.6	1.00E-07
418.8	1.00E-07
419	1.00E-07
419.2	1.00E-07
419.4	1.00E-07
419.6	1.00E-07
419.8	1.00E-07
420	1.00E-07
420.2	1.00E-07
420.4	1.00E-07
420.6	1.00E-07
420.8	1.00E-07
421	1.00E-07
421.2	1.00E-07
421.4	1.00E-07
421.6	1.00E-07
421.8	1.00E-07
422	1.00E-07
422.2	1.00E-07
422.4	1.00E-07
422.6	1.00E-07
422.8	1.00E-07
423	1.00E-07
423.2	1.00E-07
423.4	1.00E-07
423.6	1.00E-07
423.8	1.00E-07
424	1.00E-07
424.2	1.00E-07
424.4	1.00E-07
424.6	1.00E-07
424.8	1.00E-07
425	1.00E-07
425.2	1.00E-07
425.4	1.00E-07
425.6	1.00E-07
425.8	1.00E-07
426	1.00E-07
426.2	1.00E-07
426.4	1.00E-07
426.6	1.00E-07
426.8	1.00E-07
427	1.00E-07
427.2	1.00E-07
427.4	1.00E-07
427.6	1.00E-07
427.8	1.00E-07
428	1.00E-07
428.2	1.00E-07
428.4	1.00E-07
428.6	1.00E-07
428.8	1.00E-07
429	1.00E-07
429.2	1.00E-07
429.4	1.00E-07
429.6	1.00E-07
429.8	1.00E-07
430	1.00E-07
430.2	9.92E-08
430.4	8.88E-08
430.6	7.94E-08
430.8	7.11E-08
431	6.36E-08
431.2	5.69E-08
431.4	5.09E-08
431.6	4.56E-08
431.8	4.08E-08
432	3.65E-08
432.2	3.27E-08
432.4	2.92E-08
432.6	2.62E-08
432.8	2.34E-08
433	2.10E-08
433.2	1.88E-08
433.4	1.68E-08
433.6	1.50E-08
433.8	1.34E-08
434	1.35E-08
434.2	1.51E-08
434.4	1.69E-08
434.6	1.89E-08
434.8	2.11E-08
435	2.36E-08
435.2	2.64E-08
435.4	2.94E-08
435.6	3.29E-08
435.8	3.68E-08
436	4.11E-08
436.2	4.59E-08
436.4	5.13E-08
436.6	5.73E-08
436.8	6.41E-08
437	7.16E-08
437.2	8.00E-08
437.4	8.94E-08
437.6	9.99E-08
437.8	1.00E-07
438	1.00E-07
438.2	1.00E-07
438.4	1.00E-07
438.6	1.00E-07
438.8	1.00E-07
439	1.00E-07
439.2	1.00E-07
439.4	1.00E-07
439.6	1.00E-07
439.8	1.00E-07
440	1.00E-07
440.2	1.00E-07
440.4	1.00E-07
440.6	1.00E-07
440.8	1.00E-07
441	1.00E-07
441.2	1.00E-07
441.4	1.00E-07
441.6	1.00E-07
441.8	1.00E-07
442	1.00E-07
442.2	1.00E-07
442.4	1.00E-07
442.6	1.00E-07
442.8	1.00E-07
443	1.00E-07
443.2	1.00E-07
443.4	1.00E-07
443.6	1.00E-07
443.8	1.00E-07
444	1.00E-07
444.2	1.00E-07
444.4	1.00E-07
444.6	1.00E-07
444.8	1.00E-07
445	1.00E-07
445.2	1.00E-07
445.4	1.00E-07
445.6	1.00E-07
445.8	1.00E-07
446	1.00E-07
446.2	1.00E-07
446.4	1.00E-07
446.6	1.00E-07
446.8	1.00E-07
447	1.00E-07
447.2	1.00E-07
447.4	1.00E-07
447.6	1.00E-07
447.8	1.00E-07
448	1.00E-07
448.2	1.00E-07
448.4	1.00E-07
448.6	1.00E-07
448.8	1.00E-07
449	1.00E-07
449.2	1.00E-07
449.4	1.00E-07
449.6	1.00E-07
449.8	1.00E-07
450	1.00E-07
450.2	1.00E-07
450.4	1.00E-07
450.6	1.00E-07
450.8	1.00E-07
451	1.00E-07
451.2	1.00E-07
451.4	1.00E-07
451.6	1.00E-07
451.8	1.00E-07
452	1.00E-07
452.2	1.00E-07
452.4	1.00E-07
452.6	9.36E-08
452.8	8.73E-08
453	8.14E-08
453.2	7.59E-08
453.4	7.08E-08
453.6	6.61E-08
453.8	6.16E-08
454	5.75E-08
454.2	5.36E-08
454.4	5.00E-08
454.6	4.66E-08
454.8	4.35E-08
455	4.06E-08
455.2	3.78E-08
455.4	3.53E-08
455.6	3.29E-08
455.8	3.07E-08
456	2.86E-08
456.2	2.85E-08
456.4	3.06E-08
456.6	3.28E-08
456.8	3.51E-08
457	3.77E-08
457.2	4.04E-08
457.4	4.33E-08
457.6	4.64E-08
457.8	4.98E-08
458	5.34E-08
458.2	5.72E-08
458.4	6.14E-08
458.6	6.58E-08
458.8	7.05E-08
459	7.56E-08
459.2	8.11E-08
459.4	8.70E-08
459.6	9.32E-08
459.8	1.00E-07
460	1.00E-07
460.2	1.00E-07
460.4	1.00E-07
460.6	1.00E-07
460.8	1.00E-07
461	1.00E-07
461.2	1.00E-07
461.4	1.00E-07
461.6	1.00E-07
461.8	1.00E-07
462	1.00E-07
462.2	1.00E-07
462.4	1.00E-07
462.6	1.00E-07
462.8	1.00E-07
463	1.00E-07
463.2	1.00E-07
463.4	1.00E-07
463.6	1.00E-07
463.8	1.00E-07
464	1.00E-07
464.2	1.00E-07
464.4	1.00E-07
464.6	1.00E-07
464.8	1.00E-07
465	1.00E-07
465.2	1.00E-07
465.4	1.00E-07
465.6	1.00E-07
465.8	1.00E-07
466	1.00E-07
466.2	1.00E-07
466.4	1.00E-07
466.6	1.00E-07
466.8	1.00E-07
467	1.00E-07
467.2	1.05E-07
467.4	1.94E-07
467.6	3.59E-07
467.8	6.64E-07
468	1.23E-06
468.2	1.21E-06
468.4	1.20E-06
468.6	1.18E-06
468.8	1.17E-06
469	1.15E-06
469.2	1.14E-06
469.4	1.13E-06
469.6	1.11E-06
469.8	1.10E-06
470	1.08E-06
470.2	1.07E-06
470.4	1.06E-06
470.6	1.04E-06
470.8	1.04E-06
471	1.04E-06
471.2	1.04E-06
471.4	1.04E-06
471.6	1.04E-06
471.8	1.04E-06
472	1.03E-06
472.2	1.03E-06
472.4	1.03E-06
472.6	1.03E-06
472.8	1.03E-06
473	1.03E-06
473.2	1.03E-06
473.4	1.02E-06
473.6	1.02E-06
473.8	1.02E-06
474	1.02E-06
474.2	1.02E-06
474.4	1.02E-06
474.6	1.04E-06
474.8	1.05E-06
475	1.06E-06
475.2	1.07E-06
475.4	1.08E-06
475.6	1.09E-06
475.8	1.10E-06
476	1.12E-06
476.2	1.13E-06
476.4	1.14E-06
476.6	1.15E-06
476.8	1.16E-06
477	1.18E-06
477.2	1.19E-06
477.4	1.20E-06
477.6	1.21E-06
477.8	1.23E-06
478	1.24E-06
478.2	1.25E-06
478.4	1.25E-06
478.6	1.26E-06
478.8	1.26E-06
479	1.27E-06
479.2	1.27E-06
479.4	1.28E-06
479.6	1.29E-06
479.8	1.29E-06
480	1.30E-06
480.2	1.30E-06
480.4	1.31E-06
480.6	1.32E-06
480.8	1.32E-06
481	1.33E-06
481.2	1.34E-06
481.4	1.34E-06
481.6	1.35E-06
481.8	1.35E-06
482	1.36E-06
482.2	1.36E-06
482.4	1.36E-06
482.6	1.37E-06
482.8	1.37E-06
483	1.38E-06
483.2	1.38E-06
483.4	1.38E-06
483.6	1.39E-06
483.8	1.39E-06
484	1.40E-06
484.2	1.40E-06
484.4	1.40E-06
484.6	1.41E-06
484.8	1.41E-06
485	1.42E-06
485.2	1.42E-06
485.4	1.42E-06
485.6	1.43E-06
485.8	1.44E-06
486	1.44E-06
486.2	1.45E-06
486.4	1.45E-06
486.6	1.46E-06
486.8	1.47E-06
487	1.47E-06
487.2	1.48E-06
487.4	1.49E-06
487.6	1.49E-06
487.8	1.50E-06
488	1.51E-06
488.2	1.51E-06
488.4	1.52E-06
488.6	1.53E-06
488.8	1.53E-06
489	1.54E-06
489.2	1.55E-06
489.4	1.57E-06
489.6	1.58E-06
489.8	1.60E-06
490	1.61E-06
490.2	1.63E-06
490.4	1.65E-06
490.6	1.66E-06
490.8	1.68E-06
491	1.69E-06
491.2	1.71E-06
491.4	1.73E-06
491.6	1.75E-06
491.8	1.76E-06
492	1.78E-06
492.2	1.80E-06
492.4	1.81E-06
492.6	1.83E-06
492.8	1.78E-06
493	1.56E-06
493.2	1.37E-06
493.4	1.20E-06
493.6	1.05E-06
493.8	9.18E-07
494	8.04E-07
494.2	7.04E-07
494.4	6.17E-07
494.6	5.40E-07
494.8	4.73E-07
495	4.14E-07
495.2	3.63E-07
495.4	3.18E-07
495.6	2.79E-07
495.8	2.44E-07
496	2.14E-07
496.2	1.87E-07
496.4	1.64E-07
496.6	1.61E-07
496.8	1.61E-07
497	1.61E-07
497.2	1.61E-07
497.4	1.61E-07
497.6	1.62E-07
497.8	1.62E-07
498	1.62E-07
498.2	1.62E-07
498.4	1.62E-07
498.6	1.62E-07
498.8	1.62E-07
499	1.62E-07
499.2	1.62E-07
499.4	1.62E-07
499.6	1.62E-07
499.8	1.62E-07
500	1.63E-07
500.2	1.63E-07
500.4	1.63E-07
500.6	1.64E-07
500.8	1.64E-07
501	1.65E-07
501.2	1.65E-07
501.4	1.66E-07
501.6	1.66E-07
501.8	1.67E-07
502	1.67E-07
502.2	1.68E-07
502.4	1.68E-07
502.6	1.69E-07
502.8	1.69E-07
503	1.70E-07
503.2	1.70E-07
503.4	1.71E-07
503.6	1.71E-07
503.8	1.71E-07
504	1.72E-07
504.2	1.72E-07
504.4	1.73E-07
504.6	1.73E-07
504.8	1.74E-07
505	1.74E-07
505.2	1.73E-07
505.4	1.73E-07
505.6	1.72E-07
505.8	1.72E-07
506	1.71E-07
506.2	1.70E-07
506.4	1.70E-07
506.6	1.69E-07
506.8	1.68E-07
507	1.68E-07
507.2	1.67E-07
507.4	1.66E-07
507.6	1.66E-07
507.8	1.65E-07
508	1.64E-07
508.2	1.64E-07
508.4	1.63E-07
508.6	1.63E-07
508.8	1.62E-07
509	1.61E-07
509.2	1.61E-07
509.4	1.60E-07
509.6	1.59E-07
509.8	1.59E-07
510	1.59E-07
510.2	1.60E-07
510.4	1.62E-07
510.6	1.64E-07
510.8	1.66E-07
511	1.67E-07
511.2	1.69E-07
511.4	1.71E-07
511.6	1.73E-07
511.8	1.74E-07
512	1.76E-07
512.2	1.78E-07
512.4	1.80E-07
512.6	1.82E-07
512.8	1.84E-07
513	1.86E-07
513.2	1.88E-07
513.4	1.90E-07
513.6	1.92E-07
513.8	1.94E-07
514	1.96E-07
514.2	1.98E-07
514.4	2.00E-07
514.6	2.02E-07
514.8	2.04E-07
515	2.06E-07
515.2	2.06E-07
515.4	2.07E-07
515.6	2.08E-07
515.8	2.09E-07
516	2.09E-07
516.2	2.10E-07
516.4	2.11E-07
516.6	2.12E-07
516.8	2.12E-07
517	2.13E-07
517.2	2.14E-07
517.4	2.15E-07
517.6	2.15E-07
517.8	2.16E-07
518	2.17E-07
518.2	2.18E-07
518.4	2.19E-07
518.6	2.19E-07
518.8	2.20E-07
519	2.21E-07
519.2	2.22E-07
519.4	2.23E-07
519.6	2.23E-07
519.8	2.24E-07
520	2.24E-07
520.2	2.23E-07
520.4	2.22E-07
520.6	2.21E-07
520.8	2.20E-07
521	2.19E-07
521.2	2.19E-07
521.4	2.18E-07
521.6	2.17E-07
521.8	2.16E-07
522	2.15E-07
522.2	2.14E-07
522.4	2.14E-07
522.6	2.13E-07
522.8	2.12E-07
523	2.11E-07
523.2	2.10E-07
523.4	2.09E-07
523.6	2.09E-07
523.8	2.08E-07
524	2.07E-07
524.2	2.06E-07
524.4	2.05E-07
524.6	2.05E-07
524.8	2.04E-07
525	2.04E-07
525.2	2.04E-07
525.4	2.05E-07
525.6	2.05E-07
525.8	2.05E-07
526	2.05E-07
526.2	2.05E-07
526.4	2.06E-07
526.6	2.06E-07
526.8	2.06E-07
527	2.06E-07
527.2	2.07E-07
527.4	2.07E-07
527.6	2.07E-07
527.8	2.07E-07
528	2.07E-07
528.2	2.08E-07
528.4	2.08E-07
528.6	2.08E-07
528.8	2.08E-07
529	2.08E-07
529.2	2.09E-07
529.4	2.09E-07
529.6	2.09E-07
529.8	2.10E-07
530	2.10E-07
530.2	2.11E-07
530.4	2.12E-07
530.6	2.13E-07
530.8	2.13E-07
531	2.14E-07
531.2	2.15E-07
531.4	2.16E-07
531.6	2.17E-07
531.8	2.17E-07
532	2.18E-07
532.2	2.19E-07
532.4	2.20E-07
532.6	2.20E-07
532.8	2.21E-07
533	2.22E-07
533.2	2.23E-07
533.4	2.24E-07
533.6	2.24E-07
533.8	2.25E-07
534	2.26E-07
534.2	2.27E-07
534.4	2.28E-07
534.6	2.28E-07
534.8	2.28E-07
535	2.28E-07
535.2	2.28E-07
535.4	2.27E-07
535.6	2.27E-07
535.8	2.27E-07
536	2.27E-07
536.2	2.27E-07
536.4	2.26E-07
536.6	2.26E-07
536.8	2.26E-07
537	2.26E-07
537.2	2.26E-07
537.4	2.25E-07
537.6	2.25E-07
537.8	2.25E-07
538	2.25E-07
538.2	2.25E-07
538.4	2.24E-07
538.6	2.24E-07
538.8	2.24E-07
539	2.24E-07
539.2	2.24E-07
539.4	2.24E-07
539.6	2.23E-07
539.8	2.23E-07
540	2.23E-07
540.2	2.23E-07
540.4	2.23E-07
540.6	2.24E-07
540.8	2.26E-07
541	2.29E-07
541.2	2.32E-07
541.4	2.34E-07
541.6	2.37E-07
541.8	2.40E-07
542	2.43E-07
542.2	2.46E-07
542.4	2.48E-07
542.6	2.51E-07
542.8	2.54E-07
543	2.57E-07
543.2	2.60E-07
543.4	2.63E-07
543.6	2.66E-07
543.8	2.69E-07
544	2.72E-07
544.2	2.74E-07
544.4	2.75E-07
544.6	2.77E-07
544.8	2.78E-07
545	2.80E-07
545.2	2.81E-07
545.4	2.82E-07
545.6	2.84E-07
545.8	2.85E-07
546	2.87E-07
546.2	2.88E-07
546.4	2.90E-07
546.6	2.91E-07
546.8	2.93E-07
547	2.94E-07
547.2	2.96E-07
547.4	2.97E-07
547.6	2.99E-07
547.8	3.01E-07
548	3.02E-07
548.2	3.04E-07
548.4	3.05E-07
548.6	2.98E-07
548.8	2.46E-07
549	2.03E-07
549.2	1.68E-07
549.4	1.39E-07
549.6	1.14E-07
549.8	9.45E-08
550	7.80E-08
550.2	7.18E-08
550.4	4.20E-08
550.6	8.94E-08
550.8	1.35E-07
551	4.19E-08
551.2	1.08E-07
551.4	4.21E-08
551.6	8.08E-08
551.8	9.65E-08
552	6.94E-08
552.2	4.54E-08
552.4	7.29E-08
552.6	1.25E-07
552.8	4.20E-08
553	1.14E-07
553.2	5.85E-08
553.4	4.84E-08
553.6	8.35E-08
553.8	1.68E-07
554	1.40E-07
554.2	4.10E-07
554.4	2.84E-07
554.6	3.47E-07
554.8	3.76E-07
555	4.74E-07
555.2	8.19E-07
555.4	8.09E-07
555.6	1.59E-06
555.8	1.97E-06
556	2.96E-06
556.2	3.94E-06
556.4	5.68E-06
556.6	8.11E-06
556.8	1.18E-05
557	1.69E-05
557.2	2.38E-05
557.4	3.47E-05
557.6	4.95E-05
557.8	7.30E-05
558	1.07E-04
558.2	1.55E-04
558.4	2.23E-04
558.6	3.19E-04
558.8	4.49E-04
559	6.27E-04
559.2	8.65E-04
559.4	0.00115362
559.6	0.001481806
559.8	0.001859716
560	0.002287351
560.2	0.002724931
560.4	0.003192346
560.6	0.003689597
560.8	0.004186847
561	0.004703987
561.2	0.005241017
561.4	0.005797937
561.6	0.006374748
561.8	0.007220073
562	0.007856553
562.2	0.008542759
562.4	0.009238909
562.6	0.009984784
562.8	0.010770439
563	0.01146659
563.2	0.0120434
563.4	0.012988175
563.6	0.014121906
563.8	0.015295416
564	0.016637992
564.2	0.018129743
564.4	0.019512098
564.6	0.021381759
564.8	0.02354977
565	0.025996241
565.2	0.028810677
565.4	0.032062693
565.6	0.035026305
565.8	0.038129146
566	0.042892803
566.2	0.048302885
566.4	0.054667688
566.6	0.062176166
566.8	0.070738814
567	0.080455083
567.2	0.092239913
567.4	0.105874514
567.6	0.121915806
567.8	0.140562688
568	0.162073732
568.2	0.187095363
568.4	0.2059312
568.6	0.236860163
568.8	0.271936193
569	0.311000169
569.2	0.354241047
569.4	0.400833391
569.6	0.450260062
569.8	0.502153093
570	0.554543375
570.2	0.606814317
570.4	0.656957028
570.6	0.704772607
570.8	0.748958261
571	0.788549322
571.2	0.823883922
571.4	0.854494645
571.6	0.880809126
571.8	0.902827365
572	0.921653257
572.2	0.937376309
572.4	0.950056189
572.6	0.959842073
572.8	0.968524062
573	0.9755154
573.2	0.980587352
573.4	0.984992989
573.6	0.9873599
573.8	0.989756646
574	0.990751146
574.2	0.991208616
574.4	0.991695922
574.6	0.991268286
574.8	0.990462741
575	0.989637306
575.2	0.988762145
575.4	0.98714111
575.6	0.986315674
575.8	0.985112329
576	0.984187443
576.2	0.983063658
576.4	0.982357563
576.6	0.982079103
576.8	0.981581852
577	0.980835977
577.2	0.981233777
577.4	0.980885702
577.6	0.981353117
577.8	0.981601742
578	0.981581852
578.2	0.982297893
578.4	0.982546518
578.6	0.982705638
578.8	0.983421678
579	0.983779698
579.2	0.984018378
579.4	0.984257058
579.6	0.984754309
579.8	0.984823924
580	0.985012879
580.2	0.985072549
580.4	0.985520074
580.6	0.985012879
580.8	0.985092439
581	0.985679194
581.2	0.985599634
581.4	0.985599634
581.6	0.986096884
581.8	0.986047159
582	0.986534464
582.2	0.98718089
582.4	0.987111275
582.6	0.987151055
582.8	0.988304675
583	0.9883544
583.2	0.989319066
583.4	0.989816316
583.6	0.990492576
583.8	0.990621861
584	0.991795372
584.2	0.992382127
584.4	0.992421907
584.6	0.992710312
584.8	0.993227452
585	0.993476077
585.2	0.993665032
585.4	0.993903712
585.6	0.993237397
585.8	0.993068332
586	0.993008662
586.2	0.992402017
586.4	0.991904767
586.6	0.991656142
586.8	0.991347846
587	0.990432906
587.2	0.989696976
587.4	0.989080385
587.6	0.98789693
587.8	0.988105775
588	0.986912375
588.2	0.986027269
588.4	0.985828369
588.6	0.984973099
588.8	0.984833869
589	0.984406234
589.2	0.984097938
589.4	0.983779698
589.6	0.983441568
589.8	0.983660358
590	0.983501238
590.2	0.983720028
590.4	0.983879148
590.6	0.984087993
590.8	0.984446014
591	0.984963154
591.2	0.985321174
591.4	0.985679194
591.6	0.986325619
591.8	0.986663749
592	0.987409625
592.2	0.98777759
592.4	0.988722365
592.6	0.98887154
592.8	0.989508021
593	0.990074886
593.2	0.990641751
593.4	0.991109166
593.6	0.991487076
593.8	0.991874932
594	0.992441797
594.2	0.992670532
594.4	0.993088222
594.6	0.993386572
594.8	0.994192118
595	0.994221953
595.2	0.994162283
595.4	0.994470578
595.6	0.994749038
595.8	0.994878323
596	0.994689368
596.2	0.994937993
596.4	0.994719203
596.6	0.994599863
596.8	0.994709258
597	0.994391018
597.2	0.994898213
597.4	0.994271678
597.6	0.994570028
597.8	0.994251788
598	0.994221953
598.2	0.993953437
598.4	0.993883822
598.6	0.994182173
598.8	0.994032998
599	0.993446242
599.2	0.993018607
599.4	0.993346792
599.6	0.993157837
599.8	0.992700367
600	0.992939047
600.2	0.992551192
600.4	0.992213062
600.6	0.992183227
600.8	0.992232952
601	0.992193172
601.2	0.992322457
601.4	0.992511412
601.6	0.992183227
601.8	0.992232952
602	0.992043997
602.2	0.992302567
602.4	0.993137947
602.6	0.993267232
602.8	0.993446242
603	0.993436297
603.2	0.993923602
603.4	0.994231898
603.6	0.994729148
603.8	0.994768928
604	0.995107058
604.2	0.995017553
604.4	0.995962328
604.6	0.995972273
604.8	0.996071723
605	0.996539139
605.2	0.996340238
605.4	0.996728094
605.6	0.996718149
605.8	0.996708204
606	0.997096059
606.2	0.997135839
606.4	0.997314849
606.6	0.996389964
606.8	0.996340238
607	0.996449634
607.2	0.996071723
607.4	0.995803208
607.6	0.995892713
607.8	0.995415353
608	0.996012053
608.2	0.996380018
608.4	0.995932493
608.6	0.995435243
608.8	0.994898213
609	0.994739093
609.2	0.994729148
609.4	0.994221953
609.6	0.994381073
609.8	0.994172228
610	0.993714757
610.2	0.993953437
610.4	0.993764482
610.6	0.993635197
610.8	0.993744592
611	0.993814207
611.2	0.993694867
611.4	0.994042943
611.6	0.994212008
611.8	0.994152338
612	0.994729148
612.2	0.994997663
612.4	0.995196563
