XF2045,400-485-580TBDR
Wavelength (nm),%T
1100.042847,74.23458862
1098.989014,84.00521088
1098.051514,70.23374939
1096.996094,59.39693451
1096.057129,78.88035583
1095,70.89183044
1093.942139,72.19973755
1093.000977,90.53549957
1091.941406,78.52354431
1090.998901,75.6346817
1090.055664,86.68410492
1088.993652,80.19512177
1088.049072,81.35257721
1086.985474,77.81807709
1086.039429,78.15526581
1084.974365,86.02601624
1084.026855,85.95272827
1082.960083,86.1016922
1082.01123,79.40724182
1080.942871,80.93951416
1079.992554,83.18454742
1079.041504,77.66602325
1077.970825,94.36882782
1077.018433,88.23478699
1075.946167,84.26873779
1074.99231,82.79143524
1074.037842,83.585289
1072.963257,88.14141083
1072.007324,91.21394348
1071.050781,79.28666687
1069.973877,85.55786896
1069.015991,82.72101593
1068.057373,76.32913208
1066.978149,82.59823608
1066.018066,78.29078674
1065.057373,82.50648499
1063.97583,73.95492554
1063.013794,73.37632751
1062.051025,74.50949097
1060.967285,80.47328949
1060.003174,80.25999451
1059.03833,72.59468079
1057.952148,73.27067566
1056.986084,73.72296143
1056.019287,70.77394104
1055.051758,73.55654907
1053.962646,68.51017761
1052.993774,69.64634705
1052.024292,67.52807617
1051.054199,72.76885223
1049.961914,69.52005768
1048.990479,67.47203827
1048.018311,64.49022675
1047.045532,65.94841003
1045.950317,66.19854736
1044.976074,64.06056976
1044.001343,71.58770752
1043.025879,67.69215393
1042.049683,67.86316681
1040.950806,64.74964905
1039.973389,65.95017242
1038.995239,65.17134094
1038.016479,64.73820496
1037.037109,66.56845856
1036.057007,66.05573273
1034.953735,67.4023819
1033.97229,65.77228546
1032.990356,66.28501129
1032.00769,68.9384613
1031.024292,68.83543396
1030.040405,70.06420135
1029.055786,71.37340546
1027.947388,70.47531891
1026.961548,72.23361969
1025.974976,71.68334961
1024.987793,71.74622345
1023.999939,74.22917175
1023.011475,74.25722504
1022.0224,75.93084717
1021.032715,74.69458771
1020.042358,76.54137421
1019.051392,77.68054199
1018.059753,79.30059052
1016.943481,80.0934906
1015.950562,82.34859467
1014.95697,81.52443695
1013.962769,81.17356873
1012.967957,82.34518433
1011.972534,83.12875366
1010.976501,82.79717255
1009.979797,83.23635101
1008.982483,82.99904633
1007.984558,81.25901031
1006.986023,77.07569885
1005.986816,79.38355255
1004.987061,76.88499451
1003.986633,76.90563965
1002.985596,74.98238373
1001.983948,73.65148163
1000.981689,70.21853638
999.9788208,69.48327637
998.9752808,66.63062286
997.9711914,64.83692169
996.9664307,64.0927887
995.9611206,61.65096664
994.9551392,58.21188736
993.9485474,56.16424561
992.9414063,54.65083694
992.0595703,52.93935394
991.0512695,49.13996887
990.0422974,48.93489075
989.0327759,47.8082428
988.022583,45.538414
987.0117798,43.60612488
986.0004272,41.3276062
984.9884033,40.36484528
983.9758301,38.30263901
982.9626465,36.61203003
981.9487915,35.51099014
981.0612183,34.81231308
980.0462646,33.0815506
979.0307617,32.26652145
978.0145874,30.90792274
976.9978027,29.05142975
975.9804688,29.43104744
974.9624634,27.72783279
973.9439087,26.42974472
973.0521851,26.32535934
972.0325317,24.37980843
971.012207,24.71414566
969.991333,23.01073265
968.9698486,22.60435677
967.9477539,22.61885071
967.0529175,21.48376846
966.0297241,21.18382454
965.0059204,20.70841408
963.9815674,19.18040276
962.956543,18.75272751
962.0592041,17.78694916
961.0331421,18.15134621
960.0064087,17.72043419
958.979126,16.99966621
957.9512329,16.58326912
957.0513916,17.06205368
956.0223999,16.24981499
954.9927979,15.57671738
953.9626465,15.33172321
953.060791,15.57718468
952.029541,15.64703465
950.9976807,14.99205208
949.96521,15.42346668
949.0614014,14.93696117
948.027832,14.78878212
946.9937134,14.25486088
945.9590454,14.50980282
945.0531616,14.38434982
944.017395,15.28544998
942.9810181,14.08151436
941.9440308,14.3785162
941.0361938,13.55969715
939.9981689,13.94691277
938.9595337,13.97139549
938.050293,14.09298611
937.0105591,14.34405708
935.9702759,14.03445339
935.0595093,14.18119335
934.0181274,14.13750076
932.9761963,13.84836769
932.0640259,14.38760567
931.0209961,14.74385452
929.977417,14.59988785
929.0637817,15.01666451
928.019104,14.95874119
926.973877,15.3131876
926.0587769,15.57582474
925.0124512,15.71115112
923.9655762,15.74295807
923.0490723,15.98694134
922.0011597,15.93389034
920.9525757,16.59822655
920.034668,17.0796833
918.9851074,17.02267456
917.9349365,17.354599
917.015564,17.96298218
915.9643555,18.44261742
915.0440674,18.21268272
913.9918213,18.79217529
912.9389648,19.79550743
912.0172729,20.19199944
910.9633789,20.45594978
910.0407715,21.21272278
908.9857788,22.59000778
908.0622559,22.36806297
907.0062866,23.28717804
905.949707,23.49147415
905.0247803,24.79493713
903.9671631,25.45760345
903.0413208,26.74590111
901.982666,27.16631889
901.0558472,28.52548409
899.9962158,29.01144409
898.9359131,30.18597984
898.0077515,31.50154686
896.9464722,32.93252182
896.017395,33.50536346
894.9550781,34.5596962
894.0250854,35.9428215
892.961731,38.11290741
892.0308838,39.51313019
890.9664917,40.78197861
890.034668,42.59863281
888.9692383,44.4759903
888.0365601,45.81661987
886.9701538,47.78574371
886.0365601,49.10087585
884.9690552,51.8818779
884.0346069,53.99733734
882.9661255,56.5567131
882.0307007,57.94031143
880.9611816,60.63628387
880.0249634,62.47822189
878.9544067,64.99214935
878.0172729,67.35016632
876.9456787,69.52630615
876.0076294,70.61922455
874.9351196,73.87227631
873.9961548,75.67957306
873.0568237,77.22151947
871.9827881,78.75893402
871.0425415,81.87021637
869.9675293,84.03152466
869.0264282,84.73144531
867.9503174,86.37364197
867.0083618,86.38473511
866.065979,88.25776672
864.9884644,90.12952423
864.045166,91.3387146
862.9666138,92.06010437
862.022522,92.08843994
860.9429932,92.2019577
859.9979858,91.72236633
859.0525513,90.63587189
857.9715576,90.09340668
857.0252686,88.78177643
855.9432983,89.29454803
854.9961548,87.75075531
854.048584,86.34313965
852.9651489,86.22167206
852.0167236,84.86277008
850.932312,84.56436157
849.9830322,83.8458252
849.0333862,82.48409271
847.9475098,81.45496368
846.9969482,80.7526474
846.0460205,80.70806122
844.9587402,80.61656189
844.006958,79.22331238
843.0547485,78.25494385
841.9660034,78.7744751
841.0130005,79.14503479
840.0595093,77.54087067
838.9693604,78.33036041
838.0150757,78.26966858
837.0603638,78.63622284
835.968811,79.06334686
835.0133057,79.54646301
834.057373,79.72468567
832.9643555,80.94768524
832.0076294,80.58840942
831.050415,81.48236084
829.9560547,82.68208313
828.9980469,82.94765472
828.0396118,83.13822937
826.9438477,83.8258667
825.9846191,84.59832001
825.0249634,85.06508636
824.0649414,85.0368042
822.9672852,84.92441559
822.0064697,85.98993683
821.0452271,85.8077774
819.946167,86.23856354
818.9841309,85.84514618
818.0216675,85.63041687
817.0588379,84.76106262
815.9579468,84.41007996
814.9943237,84.50906372
814.0302734,82.70546722
813.0657959,82.94163513
811.9631348,81.85586548
810.9978638,80.57073212
810.0322266,80.60148621
809.0662231,78.28218079
807.961731,78.13692474
806.994873,77.86799622
806.0276489,76.96365356
805.0600586,76.71730804
803.9537354,76.02320862
802.9853516,75.58840179
802.0165405,75.40114594
801.0473633,75.83599091
799.93927,75.40284729
798.9692993,75.20141602
797.9989014,76.13755798
797.0281982,76.09371185
796.0570679,77.33940887
794.9467773,78.42424774
793.9748535,79.65089417
793.0025635,80.17999268
792.0298462,81.33009338
791.0568237,81.89820862
789.9443359,83.28911591
788.970459,84.74526978
787.9962769,84.8714447
787.0216675,86.54347992
786.0467529,87.48932648
784.9320068,86.85971832
783.9562988,88.00717926
782.9801636,86.4055481
782.0036621,85.61462402
781.0267944,85.1425705
780.0495605,84.1750412
778.932312,81.28207397
777.9542847,80.24197388
776.9758911,77.9782486
775.9971313,76.26147461
775.0180054,73.51319885
774.0385132,72.098526
773.0586548,70.72647858
771.9384155,68.29584503
770.9577637,67.85407257
769.9767456,67.22396851
768.9954224,66.55503845
768.0136719,66.22510529
767.0316162,66.51564789
766.0491333,67.16881561
765.0663452,68.06257629
763.942688,70.00177765
762.9591064,71.98383331
761.9751587,73.24472809
760.9908447,75.47131348
760.0062256,75.6289444
759.0211792,75.79819489
758.0358276,73.24787903
757.0500488,70.39457703
756.0639648,67.77203369
754.9365845,63.37448883
753.949707,58.71893692
752.9625244,56.29658508
751.9749146,52.3605423
750.9869995,49.8323288
749.9987183,46.87345123
749.0101318,43.36017227
748.0211182,38.66581726
747.0317993,35.48005295
746.0421143,31.41263199
745.052063,27.38870049
744.0616455,25.02568054
742.9293213,20.60176659
741.9381714,17.12847328
740.9467163,13.88044643
739.954834,12.27098656
738.9626465,10.22687435
737.9700928,8.523395538
736.9772339,7.219285011
735.9839478,6.463379383
734.9903564,5.23325634
733.99646,4.623588085
733.0021362,3.876060724
732.0075073,3.433869839
731.0125732,2.955561399
730.0172119,2.599428892
729.0215454,2.650929689
728.0255737,2.533626556
727.0292358,2.253777266
726.0325317,1.789803267
725.0354614,1.779990792
724.0380859,1.875567794
723.0403442,1.80732286
722.0422974,1.524708152
721.0438843,1.018695474
720.045166,1.330714345
719.0460815,0.903385401
718.0466309,1.086510062
717.046875,1.014835596
716.046814,0.852033138
715.0463257,1.061255336
714.0455933,0.760108471
713.0444336,0.856117427
712.0430298,0.818659365
711.0411987,0.732730866
710.0391235,0.679473698
709.0366211,0.640482664
708.0338745,0.697997153
707.0307007,0.727384806
706.0272827,0.762095094
705.0234375,0.682453692
704.0193481,0.528902769
703.0148926,0.773811042
702.0100708,0.812187433
701.0049438,0.746266544
699.9995117,0.809393168
698.9937134,0.812762678
697.9876099,0.976991296
696.9812012,1.045866251
695.9744263,0.975824058
694.9672852,1.125471354
693.9598999,1.083652854
692.9521484,1.006989121
691.9440308,1.350360751
690.9356079,1.376731753
690.0710449,1.642879844
689.0620117,1.725777745
688.0526733,1.934357882
687.0429688,2.331411362
686.03302,2.298926115
685.0227051,2.825797081
684.0120239,3.441879988
683.0010986,3.825797796
681.9898071,4.39886713
680.9782104,5.342372894
679.9663086,6.524456501
678.9540405,8.069687843
677.9414673,9.939359665
676.9285889,12.06609344
676.0601196,14.77255344
675.0466309,18.23640823
674.0328369,21.58365822
673.0187378,26.3376503
672.0043335,31.77363968
670.989563,36.93883896
669.9744873,40.91330338
668.9591064,45.45051575
667.9434204,48.25374222
666.9273682,50.19662476
666.0562744,53.05858994
665.0396729,57.16846466
664.0227661,60.38143539
663.0055542,65.2861557
661.9879761,67.90501404
660.9701538,69.72640991
659.9519653,70.70801544
658.9334717,70.34719849
658.0602417,68.38999176
657.0411987,64.7996521
656.0218506,62.46696854
655.0021973,60.44644547
653.9821777,60.12725067
652.9619141,60.61781693
651.9412842,61.92108917
651.0662842,63.60599518
650.045105,65.74212646
649.0236206,68.38648987
648.0018311,70.92777252
646.9797363,73.27544403
645.9573364,75.6124115
644.9346313,78.42530823
644.0578003,80.39539337
643.0345459,82.13235474
642.0109863,82.57954407
640.9871216,82.76728058
639.9628906,81.56668854
638.9384155,80.88679504
638.0600586,80.64434814
637.0350342,79.88746643
636.0097046,79.5161972
634.9840698,79.24149323
633.9581299,79.60588837
632.9318848,80.3371582
632.052002,81.09204102
631.0252686,82.49993896
629.9981689,85.21607208
628.9707642,86.83462524
627.9430542,88.58578491
627.0619507,90.26799011
626.0337524,91.27394867
625.005188,91.44908142
623.9763794,91.57244873
622.9472656,90.91559601
622.0649414,89.39517975
621.0352783,88.84140015
620.0053101,87.50992584
618.9750977,85.14454651
617.944519,83.69251251
617.0609741,82.54063416
616.0299072,81.51508331
614.9985352,81.77846527
613.9668579,82.06910706
612.9348755,83.24459839
612.0501709,83.7243576
611.0176392,85.3730011
609.9848633,87.10941315
608.9517822,88.62682343
608.0661011,90.27577972
607.0324707,91.65110016
605.9985962,92.2401123
604.9644165,92.50614929
603.9299927,92.61154175
603.0430908,91.87458801
602.0080566,90.34763336
600.9728394,88.2760849
599.9372559,85.78308105
599.0494385,83.43684387
598.0133057,79.78326416
596.9769897,74.48057556
595.9403076,67.61412811
595.0515747,59.51496506
594.0144043,52.95020294
592.9769287,44.21470642
591.939209,38.40542984
591.0494995,31.43434906
590.0112305,25.73068428
588.9727173,20.95133781
587.93396,16.88236237
587.043335,14.6393404
586.0039673,12.36840153
584.9644165,10.18328762
584.0731201,8.311910629
583.03302,7.155589104
581.9926147,6.322766304
580.9519653,5.622627735
580.0597534,4.954947472
579.0185547,4.491417408
577.9771729,3.981338739
576.9354248,3.903389454
576.0422974,3.596781492
575.0001221,3.199017525
573.9576416,3.289498329
573.0638428,3.271747828
572.020874,3.246511221
570.9776001,3.255963802
569.934082,3.361467361
569.0393677,3.565001011
567.9953613,3.780798912
566.9510498,3.983653784
566.0557251,4.616789341
565.0109253,4.956782341
563.9658813,5.446213722
563.0698853,6.295785904
562.024353,7.264351845
560.9785156,8.486480713
559.9324341,10.83261967
559.0355835,13.64866161
557.9890137,17.21674538
556.9421997,21.28411484
556.0446777,25.80490494
554.9973755,32.00419998
553.9497681,39.27578735
553.0516357,47.47651291
552.00354,54.63160706
550.9552002,63.80802917
550.0564575,67.94914246
549.0076294,72.67736816
547.9585571,75.54330444
547.0591431,75.88071442
546.0095825,74.7177124
544.9597778,71.98997498
544.0597534,70.21087646
543.0094604,68.71663666
541.9589233,68.2118454
541.0582275,69.27041626
540.0072021,72.49186707
538.9559326,75.34405518
538.0546265,78.09915161
537.0028687,81.13870239
535.9508667,83.98984528
535.0489502,86.67537689
533.996521,88.28240967
532.9437866,88.59810638
532.0412598,88.98307037
530.9880371,88.93211365
529.9346313,88.89319611
529.0314331,88.74698639
527.9775391,88.94314575
527.0740356,89.27949524
526.0196533,89.42825317
524.9650269,89.30463409
524.0608521,88.08435059
523.0057983,87.83644867
521.9505005,86.6727829
521.0457153,85.83796692
519.9899292,85.21468353
518.9338989,85.10364532
518.0285645,85.38830566
516.9721069,86.41733551
516.0663452,88.2339325
515.0093994,89.98763275
513.9522095,91.84042358
513.0458984,93.16770935
511.9882507,93.51378632
510.9303894,93.26409912
510.023468,93.03509521
508.9651489,92.63982391
508.0578308,92.77784729
506.9990845,92.12361145
505.9400635,89.73142242
505.0321655,85.46829987
503.9727173,75.82572174
503.0644531,66.30020142
502.0045471,52.92420197
500.9444275,38.12494278
500.0355835,28.46688843
498.9750061,20.7142601
498.0657959,15.34307861
497.0047913,11.33668804
495.9435425,8.171798706
495.0337524,5.977982044
493.9720764,4.998755932
493.0618896,3.914636374
491.9997864,3.386955261
490.9374695,2.883043051
490.0267334,2.577118635
488.9639587,2.278645039
488.0528259,2.144774675
486.9896545,2.066519022
485.926239,2.019933462
485.0145569,2.065271616
483.9507141,2.187984467
483.0386658,2.397011757
481.9743958,2.737942457
481.0619812,3.260217905
479.9972839,4.023270607
478.932373,5.155481815
478.0194092,7.270680904
476.954071,10.45810604
476.0407715,15.11672115
474.9750061,22.37390709
474.0613403,32.18111801
472.9951477,43.05712128
471.928772,57.56645966
471.0145569,65.41057587
469.9477539,69.80223083
469.0331726,69.65966797
467.9659424,65.08518219
467.0510254,56.79341507
465.9833984,53.47262573
465.0681152,54.87559509
464.000061,59.15770721
462.9318237,66.12799835
462.0159912,75.16986084
460.9473267,84.60987091
460.031189,88.33210754
458.9621277,90.62464905
458.0455933,89.37715912
456.9761353,86.04022217
456.0592957,82.09468079
454.9894104,80.98110199
454.0722351,81.37902832
453.0019531,82.741745
451.931488,84.82318878
451.0137634,86.08794403
449.9429016,86.1566391
449.0248413,84.13570404
447.9535828,80.15592957
447.0351868,77.72792816
445.9635315,74.48301697
445.0447998,72.98625946
443.9727478,74.06716156
443.0536804,76.93977356
441.9812317,80.20028687
441.0618286,81.89458466
439.9890137,78.17462921
439.0693054,68.67644501
437.9960938,51.29706192
437.0760193,40.81643677
436.0024414,31.52024078
434.9286194,21.69105911
434.0080872,15.04008484
432.9338989,11.74572277
432.0130005,9.533158302
430.938446,8.083410263
430.0172424,7.264714718
428.9422913,6.904025555
428.0207825,6.982783794
426.9454651,7.596631527
426.0235901,8.897370338
424.9479065,10.73503113
424.0257568,14.04922867
422.9496765,19.11290741
422.0271912,24.65032196
420.9507751,29.35801506
420.0279541,30.85118866
418.9511719,30.15969086
418.0280457,26.51864243
416.9508667,22.69334412
416.0274353,20.71445274
414.9499207,19.05585098
414.0261536,17.59210968
412.9482727,16.61466599
412.0242004,15.13817024
410.9459534,13.67761612
410.0215759,12.03862476
408.9429932,10.81863976
408.0183105,9.566407204
406.9393311,8.072577477
406.0143433,7.190734863
404.9350281,6.343738079
404.0097351,5.739294529
402.9300537,4.87541914
402.0044556,3.965685129
400.9244385,3.103467703
399.9985352,2.642981768
399.0725098,2.140173674
397.9919739,1.537858725
397.0656433,1.141048908
395.9847412,0.614262581
395.0581055,0.375264823
393.9768677,0.070550628
393.0499268,0.038290191
391.9683533,0.041038532
391.0411377,-0.029011639
389.959198,0.019199876
389.0317078,-0.026706053
387.9494324,-0.02882012
387.0216064,0.02501262
385.9390259,0.024411054
385.0109253,0.017080799
383.9279785,-0.073731124
382.9995728,-0.109101608
382.0710754,0.056155644
380.9876404,0.034105364
380.0588379,0.110417895
378.9750671,0.030606236
378.0459595,0.022156114
376.961853,0.132318333
376.0325012,0.090577863
374.9480591,0.038212053
374.0184021,0.111532547
372.9336548,0.090783678
372.0037231,0.015772264
371.0736389,0.122429118
369.9884033,0.123427331
369.058075,0.047768712
367.9725037,-0.052518252
367.0419006,-0.044228911
365.9559937,0.044207986
365.025116,0.102433257
363.9389038,-0.056038924
363.0077515,-0.009922486
362.0764465,-0.023621181
360.9897766,-0.030008826
360.0582275,-0.02246212
358.9712219,-0.023469139
358.0393982,-0.024504406
356.9520874,-0.04994766
356.019989,0.115142576
354.932373,0.016267486
354,-0.028486798
353.0675354,-0.027744455
351.9794617,-0.082531564
351.0466919,0
349.958313,-0.13395071
349.0252991,-0.105397739
347.936615,0.059600431
347.0033569,-0.112411767
346.0699463,-0.095087335
344.9808044,-0.090650834
344.0471497,-0.088505991
342.9577332,0.010836375
342.0238037,0.010775237
340.934082,-0.021429377
339.9999084,-0.076952986
339.0656128,0.021362133
337.9754639,-0.046652455
337.0408936,-0.085436769
335.9504395,0.032437537
335.0156555,-0.037518721
333.9248962,-0.025992045
332.9898376,0.035670873
332.0546875,-0.024837421
330.963501,-0.106783301
330.0280762,-0.044775449
328.936615,0.034058131
328.000946,0.063536942
327.0651855,0
325.9732971,-0.065737113
325.037262,-0.074065976
323.9450989,0.062551387
323.0088196,0.010706884
322.0724487,0.099874206
320.9798584,-0.035908163
320.0432434,-0.023651287
318.9503784,-0.052776232
318.0135193,-0.06662859
317.0765381,-0.007910457
315.9832764,-0.110160142
315.046051,-0.039023686
313.9525146,-0.076161847
313.0150757,0.037717387
312.0775146,-0.035969321
310.983551,-0.05539361
310.0457764,-0.011147288
308.9515381,-0.043530688
308.0135193,-0.081131741
307.0754089,-0.068564974
305.9807739,-0.169958979
305.0424194,0.011218943
303.9475403,-0.086926416
303.0089722,-0.116247729
302.070282,-0.068390265
300.9750061,0.017691461
300.0360718,0.008290714
