Typical Measured Spectrum of Semrock FF436/514/604-Di01 Optical Filter	
Values near or below 1e-6 are measurement noise limited.	
Form of data:  Wavelength (nm) <tab> Transmission (0 to 1)	
300	0.0039387
300.2	0.004414834
300.4	0.004948527
300.6	0.005515106
300.8	0.006111506
301	0.0067724
301.2	0.00705712
301.4	0.00735381
301.6	0.00736014
301.8	0.007075361
302	0.0068016
302.2	0.005992412
302.4	0.005279493
302.6	0.004409508
302.8	0.003491367
303	0.0027644
303.2	0.002057725
303.4	0.001531701
303.6	0.001281308
303.8	0.001204555
304	0.0011324
304.2	0.001497977
304.4	0.001981576
304.6	0.002609861
304.8	0.003422358
305	0.0044878
305.2	0.005417972
305.4	0.006540937
305.6	0.007897421
305.8	0.009536143
306	0.0115149
306.2	0.014182249
306.4	0.017467472
306.6	0.021068241
306.8	0.024885123
307	0.0293935
307.2	0.033425188
307.4	0.038009872
307.6	0.043672938
307.8	0.050701624
308	0.0588615
308.2	0.070416388
308.4	0.084239573
308.6	0.10001462
308.8	0.11576846
309	0.1315223
309.2	0.14167774
309.4	0.15183318
309.6	0.1566566
309.8	0.156148
310	0.1556394
310.2	0.14623856
310.4	0.13683772
310.6	0.12530192
310.8	0.11163116
311	0.0979604
311.2	0.084380515
311.4	0.072683158
311.6	0.064359494
311.8	0.058583952
312	0.0533267
312.2	0.052407368
312.4	0.051503884
312.6	0.050714468
312.8	0.050034323
313	0.0493633
313.2	0.046674414
313.4	0.044131995
313.6	0.040595433
313.8	0.036328691
314	0.0325104
314.2	0.027404835
314.4	0.023101069
314.6	0.019269861
314.8	0.015906209
315	0.0131297
315.2	0.010986697
315.4	0.009193471
315.6	0.007903114
315.8	0.006979485
316	0.0061638
316.2	0.006816809
316.4	0.007539
316.6	0.008615966
316.8	0.010175408
317	0.0120171
317.2	0.012949792
317.4	0.013954874
317.6	0.014325677
317.8	0.014009755
318	0.0137008
318.2	0.012504352
318.4	0.011412386
318.6	0.009980129
318.8	0.008362581
319	0.0070072
319.2	0.005137471
319.4	0.003766641
319.6	0.002640533
319.8	0.001769951
320	0.0011864
320.2	0.001012219
320.4	0.00086361
320.6	0.00095494
320.8	0.001368513
321	0.0019612
321.2	0.003700099
321.4	0.006980795
321.6	0.012017723
321.8	0.0188784
322	0.0296557
322.2	0.03918134
322.4	0.051766689
322.6	0.064272237
322.8	0.074989138
323	0.087493
323.2	0.092586358
323.4	0.097976222
323.6	0.100255632
323.8	0.099199907
324	0.0981553
324.2	0.0929785
324.4	0.08807473
324.6	0.08359305
324.8	0.079494867
325	0.0755976
325.2	0.075872967
325.4	0.076149338
325.6	0.078119112
325.8	0.081914459
326	0.0858942
326.2	0.090704007
326.4	0.095783148
326.6	0.10036516
326.8	0.10423868
327	0.1081122
327.2	0.10868664
327.4	0.10926108
327.6	0.1081961
327.8	0.1054917
328	0.1027873
328.2	0.099141279
328.4	0.095624587
328.6	0.09519276
328.8	0.097804209
329	0.1004873
329.2	0.1153497
329.4	0.1302121
329.6	0.14626554
329.8	0.16351002
330	0.1807545
330.2	0.18966762
330.4	0.19858074
330.6	0.20346598
330.8	0.20432334
331	0.2051807
331.2	0.20342042
331.4	0.20166014
331.6	0.198039
331.8	0.192557
332	0.187075
332.2	0.17526756
332.4	0.16346012
332.6	0.1518237
332.8	0.1403583
333	0.1288929
333.2	0.12083286
333.4	0.11277282
333.6	0.10616058
333.8	0.10099614
334	0.0958317
334.2	0.095743359
334.4	0.095655099
334.6	0.10005404
334.8	0.10894012
335	0.1178262
335.2	0.13397048
335.4	0.15011476
335.6	0.16573626
335.8	0.18083498
336	0.1959337
336.2	0.20123154
336.4	0.20652938
336.6	0.20586978
336.8	0.19925274
337	0.1926357
337.2	0.17837442
337.4	0.16411314
337.6	0.1482682
337.8	0.1308396
338	0.113411
338.2	0.093629683
338.4	0.077298653
338.6	0.062066569
338.8	0.048469774
339	0.0378516
339.2	0.02866607
339.4	0.021709612
339.6	0.017007954
339.8	0.013783775
340	0.0111708
340.2	0.010769366
340.4	0.010382357
340.6	0.011295401
340.8	0.013867786
341	0.017026
341.2	0.023963497
341.4	0.03372778
341.6	0.045730761
341.8	0.059732707
342	0.0780218
342.2	0.091303129
342.4	0.106845284
342.6	0.1196284
342.8	0.1277212
343	0.135814
343.2	0.1374694
343.4	0.1391248
343.6	0.13941184
343.8	0.13833052
344	0.1372492
344.2	0.13363316
344.4	0.13001712
344.6	0.12387802
344.8	0.11521586
345	0.1065537
345.2	0.092733369
345.4	0.080705577
345.6	0.069078776
345.8	0.058151284
346	0.0489524
346.2	0.041396598
346.4	0.035007035
346.6	0.02931431
346.8	0.024307355
347	0.0201556
347.2	0.015484821
347.4	0.01189643
347.6	0.009268323
347.8	0.007322507
348	0.0057852
348.2	0.00520947
348.4	0.004691036
348.6	0.004397758
348.8	0.004292212
349	0.0041892
349.2	0.004184276
349.4	0.004179357
349.6	0.004276751
349.8	0.00448367
350	0.0047006
350.2	0.005452705
350.4	0.006325149
350.6	0.007839003
350.8	0.010379639
351	0.0137437
351.2	0.01722497
351.4	0.021588044
351.6	0.025511397
351.8	0.028426365
352	0.0316744
352.2	0.032754462
352.4	0.033871353
352.6	0.034071531
352.8	0.033338633
353	0.0326215
353.2	0.031066771
353.4	0.029586139
353.6	0.028355342
353.8	0.027348651
354	0.0263777
354.2	0.026289599
354.4	0.026201793
354.6	0.026565654
354.8	0.027400121
355	0.0282608
355.2	0.02960611
355.4	0.031015462
355.6	0.032269506
355.8	0.033344449
356	0.0344552
356.2	0.034419612
356.4	0.034384062
356.6	0.033979532
356.8	0.033219005
357	0.0324755
357.2	0.031769635
357.4	0.031079113
357.6	0.031638942
357.8	0.033517548
358	0.0355077
358.2	0.042482708
358.4	0.050827862
358.6	0.060726925
358.8	0.072452027
359	0.086441
359.2	0.094659746
359.4	0.103659924
359.6	0.10941528
359.8	0.11129384
360	0.1131724
360.2	0.10954296
360.4	0.10591352
360.6	0.100709099
360.8	0.094257232
361	0.0882187
361.2	0.081142605
361.4	0.074634089
361.6	0.067570583
361.8	0.060215769
362	0.0536615
362.2	0.046670888
362.4	0.04059096
362.6	0.036982274
362.8	0.035297093
363	0.0336887
363.2	0.036264203
363.4	0.039036603
363.6	0.041549339
363.8	0.043727477
364	0.0460198
364.2	0.046417894
364.4	0.046819431
364.6	0.04634959
364.8	0.045034437
365	0.0437566
365.2	0.041531155
365.4	0.039418896
365.6	0.037135407
365.8	0.034723637
366	0.0324685
366.2	0.030055572
366.4	0.027821964
366.6	0.025920936
366.8	0.024306012
367	0.0227917
367.2	0.023222222
367.4	0.023660876
367.6	0.025760758
367.8	0.029970034
368	0.0348671
368.2	0.045408325
368.4	0.059136436
368.6	0.08073144
368.8	0.10722192
369	0.1337124
369.2	0.16739328
369.4	0.20107416
369.6	0.23352532
369.8	0.26474676
370	0.2959682
370.2	0.32560876
370.4	0.35524932
370.6	0.38216164
370.8	0.40634572
371	0.4305298
371.2	0.44089428
371.4	0.45125876
371.6	0.45398606
371.8	0.44907618
372	0.4441663
372.2	0.42455078
372.4	0.40493526
372.6	0.38091308
372.8	0.35248424
373	0.3240554
373.2	0.29913892
373.4	0.27422244
373.6	0.25432926
373.8	0.23945938
374	0.2245895
374.2	0.22361338
374.4	0.22263726
374.6	0.23203644
374.8	0.25181092
375	0.2715854
375.2	0.30406092
375.4	0.33653644
375.6	0.3679702
375.8	0.3983622
376	0.4287542
376.2	0.447289
376.4	0.4658238
376.6	0.47629364
376.8	0.47869852
377	0.4811034
377.2	0.46761788
377.4	0.45413236
377.6	0.43445826
377.8	0.40859558
378	0.3827329
378.2	0.35017134
378.4	0.31760978
378.6	0.2836722
378.8	0.2483586
379	0.213045
379.2	0.18591076
379.4	0.15877652
379.6	0.13700664
379.8	0.12060112
380	0.1041956
380.2	0.097960017
380.4	0.092097601
380.6	0.090470284
380.8	0.09285852
381	0.0953098
381.2	0.10422444
381.4	0.11313908
381.6	0.12162268
381.8	0.12967524
382	0.1377278
382.2	0.1417258
382.4	0.1457238
382.6	0.14814786
382.8	0.14899798
383	0.1498481
383.2	0.14845642
383.4	0.14706474
383.6	0.14505164
383.8	0.14241712
384	0.1397826
384.2	0.13536572
384.4	0.13094884
384.6	0.12554778
384.8	0.11916254
385	0.1127773
385.2	0.1050641
385.4	0.0973509
385.6	0.089596036
385.8	0.082280348
386	0.075562
386.2	0.070396438
386.4	0.065584004
386.6	0.06234292
386.8	0.060466986
387	0.0586475
387.2	0.060135659
387.4	0.06166158
387.6	0.063090329
387.8	0.064413441
388	0.0657643
388.2	0.065209231
388.4	0.064658847
388.6	0.06320031
388.8	0.060895166
389	0.0586741
389.2	0.054562874
389.4	0.050739717
389.6	0.04677508
389.8	0.042746124
390	0.0390642
390.2	0.03544635
390.4	0.03216356
390.6	0.02875332
390.8	0.025324633
391	0.0223048
391.2	0.018601016
391.4	0.015512257
391.6	0.012509839
391.8	0.009755888
392	0.0076082
392.2	0.006436125
392.4	0.005444613
392.6	0.00482215
392.8	0.00447142
393	0.0041462
393.2	0.003896473
393.4	0.003661788
393.6	0.003413883
393.8	0.003157461
394	0.0029203
394.2	0.002698193
394.4	0.002492978
394.6	0.002311623
394.8	0.002151141
395	0.0020018
395.2	0.001935271
395.4	0.001870953
395.6	0.00186983
395.8	0.001931788
396	0.0019958
396.2	0.002235165
396.4	0.002503238
396.6	0.002875667
396.8	0.003388589
397	0.003993
397.2	0.004480808
397.4	0.00502821
397.6	0.005493478
397.8	0.005843301
398	0.0062154
398.2	0.006337903
398.4	0.006462821
398.6	0.006450358
398.8	0.006301307
399	0.0061557
399.2	0.005904462
399.4	0.005663478
399.6	0.005403694
399.8	0.005128647
400	0.0048676
400.2	0.004680013
400.4	0.004499655
400.6	0.004328059
400.8	0.004164748
401	0.0040076
401.2	0.00380455
401.4	0.003611787
401.6	0.003431263
401.8	0.003262112
402	0.0031013
402.2	0.003001505
402.4	0.00290492
402.6	0.002811952
402.8	0.002722452
403	0.0026358
403.2	0.002531697
403.4	0.002431705
403.6	0.002284377
403.8	0.002098855
404	0.0019284
404.2	0.001784531
404.4	0.001651395
404.6	0.001525903
404.8	0.001407833
405	0.0012989
405.2	0.00123982
405.4	0.001183427
405.6	0.001184664
405.8	0.00124371
406	0.0013057
406.2	0.001513108
406.4	0.001753463
406.6	0.002067863
406.8	0.002481676
407	0.0029783
407.2	0.003429098
407.4	0.003948128
407.6	0.004403644
407.8	0.004758198
408	0.0051413
408.2	0.005345837
408.4	0.005558511
408.6	0.005671735
408.8	0.005679213
409	0.0056867
409.2	0.005483571
409.4	0.005287697
409.6	0.005067582
409.8	0.004826874
410	0.0045976
410.2	0.00436769
410.4	0.004149276
410.6	0.00396218
410.8	0.003803096
411	0.0036504
411.2	0.003505176
411.4	0.003365729
411.6	0.003292642
411.8	0.003281753
412	0.0032709
412.2	0.003439265
412.4	0.003616296
412.6	0.003858186
412.8	0.004176604
413	0.0045213
413.2	0.004862686
413.4	0.00522985
413.6	0.005560738
413.8	0.005845289
414	0.0061444
414.2	0.006246055
414.4	0.006349392
414.6	0.006373411
414.8	0.006317208
415	0.0062615
415.2	0.006094952
415.4	0.005932835
415.6	0.005757467
415.8	0.005570291
416	0.0053892
416.2	0.005207638
416.4	0.005032193
416.6	0.004872741
416.8	0.004728125
417	0.0045878
417.2	0.004508618
417.4	0.004430803
417.6	0.004416299
417.8	0.004464486
418	0.0045132
418.2	0.004765117
418.4	0.005031094
418.6	0.005353276
418.8	0.005740438
419	0.0061556
419.2	0.006558052
419.4	0.006986817
419.6	0.007379425
419.8	0.007726883
420	0.0080907
420.2	0.008329278
420.4	0.008574891
420.6	0.008773927
420.8	0.008922849
421	0.0090743
421.2	0.009162102
421.4	0.009250753
421.6	0.009341579
421.8	0.009434626
422	0.0095286
422.2	0.009581341
422.4	0.009634374
422.6	0.009696597
422.8	0.009768184
423	0.0098403
423.2	0.009906763
423.4	0.009973675
423.6	0.01000011
423.8	0.009985745
424	0.0099714
424.2	0.009900988
424.4	0.009831072
424.6	0.009734977
424.8	0.00961348
425	0.0094935
425.2	0.009201436
425.4	0.008918357
425.6	0.008607831
425.8	0.008273368
426	0.0079519
426.2	0.007557728
426.4	0.007183094
426.6	0.006818223
426.8	0.006463536
427	0.0061273
427.2	0.005789546
427.4	0.005470409
427.6	0.005165562
427.8	0.004874586
428	0.0046
428.2	0.00440351
428.4	0.004215414
428.6	0.004121436
428.8	0.004115514
429	0.0041096
429.2	0.004307887
429.4	0.004515742
429.6	0.004860928
429.8	0.005373219
430	0.0059395
430.2	0.0069557
430.4	0.008145763
430.6	0.009808328
430.8	0.012143124
431	0.0150337
431.2	0.019418127
431.4	0.025081228
431.6	0.032442654
431.8	0.042025226
432	0.0544382
432.2	0.067444922
432.4	0.083559293
432.6	0.10177994
432.8	0.11932502
433	0.1368701
433.2	0.15388102
433.4	0.17089194
433.6	0.18725516
433.8	0.20297068
434	0.2186862
434.2	0.23442476
434.4	0.25016332
434.6	0.26756302
434.8	0.28662386
435	0.3056847
435.2	0.33084938
435.4	0.35601406
435.6	0.3840223
435.8	0.4148741
436	0.4457259
436.2	0.47890206
436.4	0.51207822
436.6	0.54458974
436.8	0.57643662
437	0.6082835
437.2	0.63657694
437.4	0.66487038
437.6	0.69130664
437.8	0.71588572
438	0.7404648
438.2	0.76099048
438.4	0.78151616
438.6	0.80022146
438.8	0.81710638
439	0.8339913
439.2	0.8474251
439.4	0.8608589
439.6	0.87213786
439.8	0.88126198
440	0.8903861
440.2	0.89497458
440.4	0.89956306
440.6	0.90320982
440.8	0.90591486
441	0.9086199
441.2	0.91074586
441.4	0.91287182
441.6	0.91467842
441.8	0.91616566
442	0.9176529
442.2	0.9184939
442.4	0.9193349
442.6	0.9201037
442.8	0.9208003
443	0.9214969
443.2	0.92201414
443.4	0.92253138
443.6	0.92325298
443.8	0.92417894
444	0.9251049
444.2	0.92617498
444.4	0.92724506
444.6	0.9282225
444.8	0.9291073
445	0.9299921
445.2	0.93054986
445.4	0.93110762
445.6	0.93143654
445.8	0.93153662
446	0.9316367
446.2	0.93129518
446.4	0.93095366
446.6	0.93070854
446.8	0.93055982
447	0.9304111
447.2	0.92947214
447.4	0.92853318
447.6	0.92747942
447.8	0.92631086
448	0.9251423
448.2	0.9245719
448.4	0.9240015
448.6	0.92343212
448.8	0.92286376
449	0.9222954
449.2	0.92196596
449.4	0.92163652
449.6	0.92145088
449.8	0.92140904
450	0.9213672
450.2	0.92131
450.4	0.9212528
450.6	0.92125638
450.8	0.92132074
451	0.9213851
451.2	0.92156726
451.4	0.92174942
451.6	0.92199748
451.8	0.92231144
452	0.9226254
452.2	0.92291816
452.4	0.92321092
452.6	0.92320846
452.8	0.92291078
453	0.9226131
453.2	0.92258818
453.4	0.92256326
453.6	0.92255252
453.8	0.92255596
454	0.9225594
454.2	0.92262608
454.4	0.92269276
454.6	0.9228653
454.8	0.9231437
455	0.9234221
455.2	0.92352002
455.4	0.92361794
455.6	0.9236765
455.8	0.9236957
456	0.9237149
456.2	0.92340926
456.4	0.92310362
456.6	0.92269404
456.8	0.92218052
457	0.921667
457.2	0.92093548
457.4	0.92020396
457.6	0.91961092
457.8	0.91915636
458	0.9187018
458.2	0.91814256
458.4	0.91758332
458.6	0.91689918
458.8	0.91609014
459	0.9152811
459.2	0.91472982
459.4	0.91417854
459.6	0.91378214
459.8	0.91354062
460	0.9132991
460.2	0.91332314
460.4	0.91334718
460.6	0.91339858
460.8	0.91347734
461	0.9135561
461.2	0.91388698
461.4	0.91421786
461.6	0.91466368
461.8	0.91522444
462	0.9157852
462.2	0.9162446
462.4	0.916704
462.6	0.91720566
462.8	0.91774958
463	0.9182935
463.2	0.9188359
463.4	0.9193783
463.6	0.9199284
463.8	0.9204862
464	0.921044
464.2	0.92158384
464.4	0.92212368
464.6	0.92255046
464.8	0.92286418
465	0.9231779
465.2	0.92331242
465.4	0.92344694
465.6	0.9233987
465.8	0.9231677
466	0.9229367
466.2	0.9224803
466.4	0.9220239
466.6	0.9212497
466.8	0.9201577
467	0.9190657
467.2	0.91724398
467.4	0.91542226
467.6	0.91237586
467.8	0.90810478
468	0.9038337
468.2	0.89566106
468.4	0.88748842
468.6	0.87745162
468.8	0.86555066
469	0.8536497
469.2	0.83832218
469.4	0.82299466
469.6	0.80637588
469.8	0.78846584
470	0.7705558
470.2	0.75074132
470.4	0.73092684
470.6	0.71088722
470.8	0.69062246
471	0.6703577
471.2	0.64932802
471.4	0.62829834
471.6	0.6063262
471.8	0.5834116
472	0.560497
472.2	0.53546292
472.4	0.51042884
472.6	0.48459036
472.8	0.45794748
473	0.4313046
473.2	0.40418704
473.4	0.37706948
473.6	0.35031312
473.8	0.32391796
474	0.2975228
474.2	0.2731952
474.4	0.2488676
474.6	0.22623676
474.8	0.20530268
475	0.1843686
475.2	0.16668452
475.4	0.14900044
475.6	0.13273904
475.8	0.11790032
476	0.1030616
476.2	0.089617442
476.4	0.077927044
476.6	0.066981429
476.8	0.056910338
477	0.0483535
477.2	0.040245518
477.4	0.033497094
477.6	0.027726548
477.8	0.022823569
478	0.0187876
478.2	0.015541402
478.4	0.012856095
478.6	0.010734693
478.8	0.009047567
479	0.0076256
479.2	0.006557303
479.4	0.005638667
479.6	0.00490242
479.8	0.004309505
480	0.0037883
480.2	0.003391712
480.4	0.003036642
480.6	0.002747615
480.8	0.002512498
481	0.0022975
481.2	0.002152202
481.4	0.002016092
481.6	0.001893179
481.8	0.00178208
482	0.0016775
482.2	0.001625497
482.4	0.001575106
482.6	0.001543151
482.8	0.001528556
483	0.0015141
483.2	0.001535591
483.4	0.001557386
483.6	0.001600019
483.8	0.001665183
484	0.001733
484.2	0.001822058
484.4	0.001915693
484.6	0.002047523
484.8	0.002224696
485	0.0024172
485.2	0.002665955
485.4	0.00294031
485.6	0.003253013
485.8	0.003610197
486	0.0040066
486.2	0.004449016
486.4	0.004940283
486.6	0.005461465
486.8	0.006010851
487	0.0066155
487.2	0.007125587
487.4	0.007675004
487.6	0.00818196
487.8	0.008632903
488	0.0091087
488.2	0.009437505
488.4	0.009778179
488.6	0.010065646
488.8	0.01029457
489	0.0105287
489.2	0.010628075
489.4	0.010728389
489.6	0.010791232
489.8	0.010815938
490	0.0108407
490.2	0.010809071
490.4	0.010777534
490.6	0.010732905
490.8	0.010675348
491	0.0106181
491.2	0.010582008
491.4	0.010546039
491.6	0.01052852
491.8	0.01052936
492	0.0105302
492.2	0.010506199
492.4	0.010482253
492.6	0.010436361
492.8	0.010368812
493	0.0103017
493.2	0.010191904
493.4	0.010083278
493.6	0.009951912
493.8	0.009798727
494	0.0096479
494.2	0.009422651
494.4	0.009202661
494.6	0.00894912
494.8	0.008665103
495	0.0083901
495.2	0.008037292
495.4	0.007699319
495.6	0.007332358
495.8	0.006941988
496	0.0065724
496.2	0.006161848
496.4	0.005776941
496.6	0.005405555
496.8	0.005048216
497	0.0047145
497.2	0.004374268
497.4	0.00405859
497.6	0.003736677
497.8	0.003413788
498	0.0031188
498.2	0.002831961
498.4	0.002571503
498.6	0.002333312
498.8	0.002115654
499	0.0019183
499.2	0.001766942
499.4	0.001627527
499.6	0.001516866
499.8	0.001430473
500	0.001349
500.2	0.001281185
500.4	0.001216779
500.6	0.001167802
500.8	0.001132621
501	0.0010985
501.2	0.001090779
501.4	0.001083113
501.6	0.001090063
501.8	0.001111913
502	0.0011342
502.2	0.001179136
502.4	0.001225852
502.6	0.001277146
502.8	0.001333433
503	0.0013922
503.2	0.001474441
503.4	0.00156154
503.6	0.001666126
503.8	0.001790985
504	0.0019252
504.2	0.002118763
504.4	0.002331786
504.6	0.002593421
504.8	0.002914976
505	0.0032764
505.2	0.003736177
505.4	0.004260474
505.6	0.004899693
505.8	0.00568277
506	0.006591
506.2	0.007787011
506.4	0.009200052
506.6	0.010932487
506.8	0.013066429
507	0.0156169
507.2	0.018694205
507.4	0.022377893
507.6	0.026638597
507.8	0.031534323
508	0.0373298
508.2	0.043108144
508.4	0.049780928
508.6	0.056644466
508.8	0.063510105
509	0.0712079
509.2	0.077980398
509.4	0.08539702
509.6	0.092657387
509.8	0.099608741
510	0.1070816
510.2	0.11375924
510.4	0.12043688
510.6	0.12697992
510.8	0.13338836
511	0.1397968
511.2	0.14626536
511.4	0.15273392
511.6	0.15967334
511.8	0.16708362
512	0.1744939
512.2	0.1842625
512.4	0.1940311
512.6	0.20625586
512.8	0.22093678
513	0.2356177
513.2	0.25664922
513.4	0.27768074
513.6	0.30131916
513.8	0.32756448
514	0.3538098
514.2	0.383592
514.4	0.4133742
514.6	0.44365002
514.8	0.47441946
515	0.5051889
515.2	0.53490942
515.4	0.56462994
515.6	0.59339284
515.8	0.62119812
516	0.6490034
516.2	0.6736688
516.4	0.6983342
516.6	0.72133384
516.8	0.74266772
517	0.7640016
517.2	0.78202736
517.4	0.80005312
517.6	0.81647658
517.8	0.83129774
518	0.8461189
518.2	0.85734106
518.4	0.86856322
518.6	0.8780366
518.8	0.8857612
519	0.8934858
519.2	0.89836768
519.4	0.90324956
519.6	0.90713538
519.8	0.91002514
520	0.9129149
520.2	0.9143527
520.4	0.9157905
520.6	0.9170982
520.8	0.9182758
521	0.9194534
521.2	0.92021648
521.4	0.92097956
521.6	0.9216059
521.8	0.9220955
522	0.9225851
522.2	0.92270494
522.4	0.92282478
522.6	0.92302292
522.8	0.92329936
523	0.9235758
