Typical Measured Spectrum of Semrock FF01-510/42 Optical Filter	
For wavelengths between 320 and 1120 nm, values near or below 3e-7 (Optical Density 6.5) are measurement noise limited.
For wavelengths < 320 nm and > 1120 nm, values near or below 3e-6 (Optical Density 5.5) are measurement noise limited. 
Data format:  Wavelength (nm) <tab> Transmission (0 to 1)
270.0	5.6626e-05
270.2	5.6028e-05
270.4	5.5436e-05
270.6	5.485e-05
270.8	5.427e-05
271.0	5.3696e-05
271.2	5.3128e-05
271.4	5.2567e-05
271.6	5.2011e-05
271.8	5.1461e-05
272.0	5.0917e-05
272.2	5.0379e-05
272.4	4.9847e-05
272.6	4.932e-05
272.8	4.8787e-05
273.0	4.6026e-05
273.2	4.3422e-05
273.4	4.0965e-05
273.6	3.8648e-05
273.8	3.6461e-05
274.0	3.4398e-05
274.2	3.2452e-05
274.4	3.0616e-05
274.6	2.8884e-05
274.8	2.7249e-05
275.0	2.5708e-05
275.2	2.5638e-05
275.4	2.5568e-05
275.6	2.5499e-05
275.8	2.543e-05
276.0	2.5361e-05
276.2	2.5292e-05
276.4	2.5223e-05
276.6	2.5155e-05
276.8	2.5087e-05
277.0	2.5019e-05
277.2	2.4951e-05
277.4	2.4883e-05
277.6	2.4816e-05
277.8	2.4308e-05
278.0	2.3063e-05
278.2	2.1881e-05
278.4	2.076e-05
278.6	1.9697e-05
278.8	1.8688e-05
279.0	1.7731e-05
279.2	1.6822e-05
279.4	1.596e-05
279.6	1.5143e-05
279.8	1.4367e-05
280.0	1.3631e-05
280.2	1.2933e-05
280.4	1.227e-05
280.6	1.1642e-05
280.8	1.1045e-05
281.0	1.048e-05
281.2	9.9428e-06
281.4	9.4334e-06
281.6	8.9502e-06
281.8	8.6621e-06
282.0	8.6264e-06
282.2	8.5908e-06
282.4	8.5554e-06
282.6	8.5201e-06
282.8	8.485e-06
283.0	8.45e-06
283.2	8.4151e-06
283.4	8.3804e-06
283.6	8.3459e-06
283.8	8.3115e-06
284.0	8.2772e-06
284.2	8.2431e-06
284.4	8.2091e-06
284.6	8.1752e-06
284.8	8.1415e-06
285.0	8.108e-06
285.2	8.0745e-06
285.4	8.0412e-06
285.6	8.0081e-06
285.8	7.8947e-06
286.0	7.6945e-06
286.2	7.4994e-06
286.4	7.3092e-06
286.6	7.1239e-06
286.8	6.9432e-06
287.0	6.7672e-06
287.2	6.5956e-06
287.4	6.4283e-06
287.6	6.2653e-06
287.8	6.1064e-06
288.0	5.9516e-06
288.2	5.8007e-06
288.4	5.6536e-06
288.6	5.5102e-06
288.8	5.3705e-06
289.0	5.2343e-06
289.2	5.1016e-06
289.4	4.9722e-06
289.6	4.8461e-06
289.8	4.4406e-06
290.0	3.8565e-06
290.2	3.3492e-06
290.4	2.9087e-06
290.6	2.5261e-06
290.8	2.1938e-06
291.0	1.9053e-06
291.2	1.6547e-06
291.4	1.437e-06
291.6	1.248e-06
291.8	1.0839e-06
292.0	9.4129e-07
292.2	8.1748e-07
292.4	7.0995e-07
292.6	6.1657e-07
292.8	5.3547e-07
293.0	4.6504e-07
293.2	4.0387e-07
293.4	3.5075e-07
293.6	3.0461e-07
293.8	3.8522e-07
294.0	6.1946e-07
294.2	9.9613e-07
294.4	1.6018e-06
294.6	2.5759e-06
294.8	4.1422e-06
295.0	6.6609e-06
295.2	6.5699e-06
295.4	6.4802e-06
295.6	6.3908e-06
295.8	6.2425e-06
296.0	6.0976e-06
296.2	5.956e-06
296.4	5.8178e-06
296.6	5.6827e-06
296.8	5.5508e-06
297.0	5.422e-06
297.2	5.2961e-06
297.4	5.1732e-06
297.6	5.0531e-06
297.8	4.9358e-06
298.0	4.8212e-06
298.2	4.7093e-06
298.4	4.6e-06
298.6	4.4932e-06
298.8	4.3889e-06
299.0	4.287e-06
299.2	4.1875e-06
299.4	4.0903e-06
299.6	3.9954e-06
299.8	2.5447e-06
300.0	1.3067e-06
300.2	1.3293e-06
300.4	1.3523e-06
300.6	1.3757e-06
300.8	1.3996e-06
301.0	1.4238e-06
301.2	1.4485e-06
301.4	1.4736e-06
301.6	1.4991e-06
301.8	1.525e-06
302.0	1.2399e-06
302.2	9.9503e-07
302.4	7.9851e-07
302.6	6.4081e-07
302.8	5.1425e-07
303.0	4.1268e-07
303.2	3.3118e-07
303.4	2.6577e-07
303.6	2.1328e-07
303.8	1.7116e-07
304.0	1.6091e-07
304.2	1.5902e-07
304.4	1.5715e-07
304.6	1.5531e-07
304.8	1.5349e-07
305.0	1.5169e-07
305.2	1.4991e-07
305.4	1.4815e-07
305.6	1.4641e-07
305.8	1.447e-07
306.0	1.55e-07
306.2	1.7624e-07
306.4	2.0039e-07
306.6	2.2784e-07
306.8	2.5906e-07
307.0	2.9455e-07
307.2	3.349e-07
307.4	3.8079e-07
307.6	4.3296e-07
307.8	4.9227e-07
308.0	5.8602e-07
308.2	7.4959e-07
308.4	9.5881e-07
308.6	1.2264e-06
308.8	1.5687e-06
309.0	2.0066e-06
309.2	2.5667e-06
309.4	3.2831e-06
309.6	4.1994e-06
309.8	5.3715e-06
310.0	6.7879e-06
310.2	7.7351e-06
310.4	8.8143e-06
310.6	1.0044e-05
310.8	1.1446e-05
311.0	1.3043e-05
311.2	1.4863e-05
311.4	1.6936e-05
311.6	1.9299e-05
311.8	2.1992e-05
312.0	2.3051e-05
312.2	2.4055e-05
312.4	2.5103e-05
312.6	2.6196e-05
312.8	2.7336e-05
313.0	2.8527e-05
313.2	2.9769e-05
313.4	3.1066e-05
313.6	3.2418e-05
313.8	3.383e-05
314.0	3.1763e-05
314.2	2.8869e-05
314.4	2.6239e-05
314.6	2.3848e-05
314.8	2.1676e-05
315.0	1.9701e-05
315.2	1.7906e-05
315.4	1.6275e-05
315.6	1.4792e-05
315.8	1.3444e-05
316.0	1.2368e-05
316.2	1.1472e-05
316.4	1.0642e-05
316.6	9.8716e-06
316.8	9.1571e-06
317.0	8.4943e-06
317.2	7.8794e-06
317.4	7.3091e-06
317.6	6.78e-06
317.8	6.2893e-06
318.0	6.5215e-06
318.2	7.9382e-06
318.4	9.6626e-06
318.6	1.1762e-05
318.8	1.4316e-05
319.0	1.7426e-05
319.2	2.1212e-05
319.4	2.582e-05
319.6	3.1428e-05
319.8	3.8255e-05
320.0	4.5848e-05
320.2	4.9034e-05
320.4	5.2442e-05
320.6	5.6087e-05
320.8	5.9985e-05
321.0	6.4154e-05
321.2	6.8613e-05
321.4	7.3381e-05
321.6	7.8482e-05
321.8	8.3936e-05
322.0	7.7653e-05
322.2	7.1e-05
322.4	6.4918e-05
322.6	5.9356e-05
322.8	5.4271e-05
323.0	4.9622e-05
323.2	4.5371e-05
323.4	4.1484e-05
323.6	3.793e-05
323.8	3.468e-05
324.0	3.0227e-05
324.2	2.5928e-05
324.4	2.2241e-05
324.6	1.9078e-05
324.8	1.6365e-05
325.0	1.4037e-05
325.2	1.2041e-05
325.4	1.0329e-05
325.6	8.8597e-06
325.8	7.5997e-06
326.0	6.9929e-06
326.2	6.777e-06
326.4	6.5679e-06
326.6	6.3651e-06
326.8	6.1687e-06
327.0	5.9783e-06
327.2	5.7938e-06
327.4	5.615e-06
327.6	5.4417e-06
327.8	5.2737e-06
328.0	5.1175e-06
328.2	4.9752e-06
328.4	4.8369e-06
328.6	4.7025e-06
328.8	4.5718e-06
329.0	4.4447e-06
329.2	4.3211e-06
329.4	4.201e-06
329.6	4.0843e-06
329.8	3.9707e-06
330.0	3.8721e-06
330.2	3.861e-06
330.4	3.8499e-06
330.6	3.8388e-06
330.8	3.8278e-06
331.0	3.8168e-06
331.2	3.8058e-06
331.4	3.7949e-06
331.6	3.784e-06
331.8	3.7731e-06
332.0	3.7118e-06
332.2	3.6466e-06
332.4	3.5825e-06
332.6	3.5195e-06
332.8	3.4577e-06
333.0	3.3969e-06
333.2	3.3373e-06
333.4	3.2786e-06
333.6	3.221e-06
333.8	3.1644e-06
334.0	3.049e-06
334.2	2.9178e-06
334.4	2.7922e-06
334.6	2.672e-06
334.8	2.557e-06
335.0	2.447e-06
335.2	2.3417e-06
335.4	2.2409e-06
335.6	2.1444e-06
335.8	2.0521e-06
336.0	1.8796e-06
336.2	1.6667e-06
336.4	1.4779e-06
336.6	1.3105e-06
336.8	1.162e-06
337.0	1.0304e-06
337.2	9.1367e-07
337.4	8.1017e-07
337.6	7.184e-07
337.8	6.3702e-07
338.0	5.8249e-07
338.2	5.567e-07
338.4	5.3206e-07
338.6	5.0851e-07
338.8	4.86e-07
339.0	4.6449e-07
339.2	4.4393e-07
339.4	4.2428e-07
339.6	4.0551e-07
339.8	3.8756e-07
340.0	3.6106e-07
340.2	2.8129e-07
340.4	2.1915e-07
340.6	1.7073e-07
340.8	1.3301e-07
341.0	1.0363e-07
341.2	8.0735e-08
341.4	6.2898e-08
341.6	4.9003e-08
341.8	3.8177e-08
342.0	4.9619e-08
342.2	6.784e-08
342.4	9.2751e-08
342.6	1.2681e-07
342.8	1.7337e-07
343.0	2.3704e-07
343.2	3.2408e-07
343.4	4.4309e-07
343.6	6.0579e-07
343.8	8.2824e-07
344.0	7.3987e-07
344.2	5.7134e-07
344.4	4.412e-07
344.6	3.407e-07
344.8	2.6309e-07
345.0	2.0316e-07
345.2	1.5688e-07
345.4	1.2115e-07
345.6	9.3552e-08
345.8	7.2242e-08
346.0	6.9062e-08
346.2	7.6815e-08
346.4	8.5439e-08
346.6	9.5032e-08
346.8	1.057e-07
347.0	1.1757e-07
347.2	1.3077e-07
347.4	1.4545e-07
347.6	1.6178e-07
347.8	1.7994e-07
348.0	1.887e-07
348.2	1.8273e-07
348.4	1.7695e-07
348.6	1.7135e-07
348.8	1.6593e-07
349.0	1.6068e-07
349.2	1.5559e-07
349.4	1.5067e-07
349.6	1.459e-07
349.8	1.4129e-07
350.0	1.39e-07
350.2	1.5134e-07
350.4	1.6479e-07
350.6	1.7942e-07
350.8	1.9536e-07
351.0	2.1271e-07
351.2	2.316e-07
351.4	2.5217e-07
351.6	2.7457e-07
351.8	2.9895e-07
352.0	3.0697e-07
352.2	3.1258e-07
352.4	3.1828e-07
352.6	3.2409e-07
352.8	3.3001e-07
353.0	3.3603e-07
353.2	3.4216e-07
353.4	3.4841e-07
353.6	3.5477e-07
353.8	3.6124e-07
354.0	3.0786e-07
354.2	2.4482e-07
354.4	1.9469e-07
354.6	1.5482e-07
354.8	1.2312e-07
355.0	9.7908e-08
355.2	7.7859e-08
355.4	6.1916e-08
355.6	4.9237e-08
355.8	3.9155e-08
356.0	3.5401e-08
356.2	3.533e-08
356.4	3.526e-08
356.6	3.519e-08
356.8	3.512e-08
357.0	3.505e-08
357.2	3.498e-08
357.4	3.491e-08
357.6	3.4841e-08
357.8	3.4771e-08
358.0	3.6302e-08
358.2	4.0386e-08
358.4	4.493e-08
358.6	4.9984e-08
358.8	5.5608e-08
359.0	6.1864e-08
359.2	6.8824e-08
359.4	7.6567e-08
359.6	8.5181e-08
359.8	9.4764e-08
360.0	1.0612e-07
360.2	1.2421e-07
360.4	1.4539e-07
360.6	1.7017e-07
360.8	1.9917e-07
361.0	2.3312e-07
361.2	2.7285e-07
361.4	3.1936e-07
361.6	3.738e-07
361.8	4.3751e-07
362.0	4.7665e-07
362.2	5.1495e-07
362.4	5.5632e-07
362.6	6.0102e-07
362.8	6.493e-07
363.0	7.0147e-07
363.2	7.5782e-07
363.4	8.1871e-07
363.6	8.8448e-07
363.8	9.5554e-07
364.0	9.6268e-07
364.2	9.4696e-07
364.4	9.3149e-07
364.6	9.1628e-07
364.8	9.0132e-07
365.0	8.866e-07
365.2	8.7212e-07
365.4	8.5788e-07
365.6	8.4387e-07
365.8	8.3009e-07
366.0	8.1937e-07
366.2	8.1069e-07
366.4	8.021e-07
366.6	7.936e-07
366.8	7.852e-07
367.0	7.7688e-07
367.2	7.6865e-07
367.4	7.6051e-07
367.6	7.5245e-07
367.8	7.4448e-07
368	7.5712E-08
368.2	7.9629E-08
368.4	8.3749E-08
368.6	8.8082E-08
368.8	9.2639E-08
369	9.7431E-08
369.2	1.0247E-07
369.4	1.0777E-07
369.6	1.1335E-07
369.8	1.1921E-07
370	1.2713E-07
370.2	1.462E-07
370.4	1.6813E-07
370.6	1.9335E-07
370.8	2.2235E-07
371	2.5571E-07
371.2	2.9406E-07
371.4	3.3817E-07
371.6	3.889E-07
371.8	4.4724E-07
372	4.5025E-07
372.2	4.4396E-07
372.4	4.3775E-07
372.6	4.3164E-07
372.8	4.2561E-07
373	4.1966E-07
373.2	4.138E-07
373.4	4.0802E-07
373.6	4.0232E-07
373.8	3.967E-07
374	3.8432E-07
374.2	3.6985E-07
374.4	3.5592E-07
374.6	3.4251E-07
374.8	3.2961E-07
375	3.172E-07
375.2	3.0525E-07
375.4	2.9375E-07
375.6	2.8269E-07
375.8	2.7204E-07
376	2.6331E-07
376.2	2.5594E-07
376.4	2.4877E-07
376.6	2.418E-07
376.8	2.3502E-07
377	2.2844E-07
377.2	2.2204E-07
377.4	2.1581E-07
377.6	2.0977E-07
377.8	2.0389E-07
378	2.086E-07
378.2	2.278E-07
378.4	2.4876E-07
378.6	2.7166E-07
378.8	2.9666E-07
379	3.2396E-07
379.2	3.5378E-07
379.4	3.8634E-07
379.6	4.219E-07
379.8	4.6073E-07
380	5.0231E-07
380.2	5.4256E-07
380.4	5.8603E-07
380.6	6.3299E-07
380.8	6.8371E-07
381	7.3849E-07
381.2	7.9767E-07
381.4	8.6158E-07
381.6	9.3062E-07
381.8	1.0052E-06
382	1.0041E-06
382.2	9.9039E-07
382.4	9.7683E-07
382.6	9.6347E-07
382.8	9.5029E-07
383	9.3728E-07
383.2	9.2446E-07
383.4	9.1181E-07
383.6	8.9933E-07
383.8	8.8703E-07
384	8.3014E-07
384.2	7.612E-07
384.4	6.9798E-07
384.6	6.4002E-07
384.8	5.8686E-07
385	5.3813E-07
385.2	4.9344E-07
385.4	4.5246E-07
385.6	4.1488E-07
385.8	3.8043E-07
386	3.6742E-07
386.2	3.6817E-07
386.4	3.6892E-07
386.6	3.6967E-07
386.8	3.7043E-07
387	3.7118E-07
387.2	3.7194E-07
387.4	3.727E-07
387.6	3.7346E-07
387.8	3.7422E-07
388	3.8572E-07
388.2	4.1125E-07
388.4	4.3847E-07
388.6	4.6749E-07
388.8	4.9843E-07
389	5.3142E-07
389.2	5.6659E-07
389.4	6.0409E-07
389.6	6.4407E-07
389.8	6.867E-07
390	7.3011E-07
390.2	7.6493E-07
390.4	8.0141E-07
390.6	8.3964E-07
390.8	8.7969E-07
391	9.2164E-07
391.2	9.656E-07
391.4	1.0117E-06
391.6	1.0599E-06
391.8	1.1105E-06
392	1.0726E-06
392.2	1.0207E-06
392.4	9.7125E-07
392.6	9.2424E-07
392.8	8.7949E-07
393	8.3692E-07
393.2	7.964E-07
393.4	7.5785E-07
393.6	7.2116E-07
393.8	6.8625E-07
394	6.6724E-07
394.2	6.5448E-07
394.4	6.4197E-07
394.6	6.297E-07
394.8	6.1766E-07
395	6.0585E-07
395.2	5.9427E-07
395.4	5.8291E-07
395.6	5.7176E-07
395.8	5.6083E-07
396	5.5288E-07
396.2	5.4699E-07
396.4	5.4116E-07
396.6	5.354E-07
396.8	5.2969E-07
397	5.2405E-07
397.2	5.1846E-07
397.4	5.1294E-07
397.6	5.0747E-07
397.8	5.0207E-07
398	5.0995E-07
398.2	5.3453E-07
398.4	5.603E-07
398.6	5.873E-07
398.8	6.1561E-07
399	6.4528E-07
399.2	6.7638E-07
399.4	7.0898E-07
399.6	7.4316E-07
399.8	7.7898E-07
400	8.1383E-07
400.2	8.3617E-07
400.4	8.5912E-07
400.6	8.827E-07
400.8	9.0693E-07
401	9.3183E-07
401.2	9.5741E-07
401.4	9.8368E-07
401.6	1.0107E-06
401.8	1.0384E-06
402	1.0166E-06
402.2	9.861E-07
402.4	9.5653E-07
402.6	9.2784E-07
402.8	9.0001E-07
403	8.7301E-07
403.2	8.4683E-07
403.4	8.2143E-07
403.6	7.9679E-07
403.8	7.7289E-07
404	7.6508E-07
404.2	7.635E-07
404.4	7.6193E-07
404.6	7.6036E-07
404.8	7.5879E-07
405	7.5723E-07
405.2	7.5566E-07
405.4	7.5411E-07
405.6	7.5255E-07
405.8	7.51E-07
406	7.5039E-07
406.2	7.5043E-07
406.4	7.5048E-07
406.6	7.5052E-07
406.8	7.5057E-07
407	7.5061E-07
407.2	7.5065E-07
407.4	7.507E-07
407.6	7.5074E-07
407.8	7.5078E-07
408	7.5912E-07
408.2	7.7712E-07
408.4	7.9554E-07
408.6	8.1441E-07
408.8	8.3372E-07
409	8.5348E-07
409.2	8.7372E-07
409.4	8.9443E-07
409.6	9.1564E-07
409.8	9.3735E-07
410	9.5517E-07
410.2	9.5248E-07
410.4	9.4978E-07
410.6	9.471E-07
410.8	9.4443E-07
411	9.4176E-07
411.2	9.391E-07
411.4	9.3645E-07
411.6	9.338E-07
411.8	9.3116E-07
412	9.3196E-07
412.2	9.3344E-07
412.4	9.3492E-07
412.6	9.3641E-07
412.8	9.379E-07
413	9.3939E-07
413.2	9.4088E-07
413.4	9.4237E-07
413.6	9.4387E-07
413.8	9.4537E-07
414	9.4585E-07
414.2	9.4593E-07
414.4	9.4601E-07
414.6	9.4609E-07
414.8	9.4617E-07
415	9.4625E-07
415.2	9.4633E-07
415.4	9.4641E-07
415.6	9.4648E-07
415.8	9.4656E-07
416	9.4826E-07
416.2	9.5107E-07
416.4	9.5388E-07
416.6	9.567E-07
416.8	9.5953E-07
417	9.6237E-07
417.2	9.6521E-07
417.4	9.6807E-07
417.6	9.7093E-07
417.8	9.7381E-07
418	9.8113E-07
418.2	9.9339E-07
418.4	1.0058E-06
418.6	1.0184E-06
418.8	1.0311E-06
419	1.044E-06
419.2	1.057E-06
419.4	1.0702E-06
419.6	1.0836E-06
419.8	1.0971E-06
420	1.1087E-06
420.2	1.1108E-06
420.4	1.113E-06
420.6	1.1151E-06
420.8	1.1173E-06
421	1.1194E-06
421.2	1.1216E-06
421.4	1.1238E-06
421.6	1.126E-06
421.8	1.1281E-06
422	1.1318E-06
422.2	1.1357E-06
422.4	1.1396E-06
422.6	1.1436E-06
422.8	1.1475E-06
423	1.1515E-06
423.2	1.1555E-06
423.4	1.1595E-06
423.6	1.1635E-06
423.8	1.1676E-06
424	1.1689E-06
424.2	1.1692E-06
424.4	1.1695E-06
424.6	1.1698E-06
424.8	1.1701E-06
425	1.1704E-06
425.2	1.1707E-06
425.4	1.171E-06
425.6	1.1713E-06
425.8	1.1716E-06
426	1.1791E-06
426.2	1.1912E-06
426.4	1.2035E-06
426.6	1.2158E-06
426.8	1.2283E-06
427	1.2409E-06
427.2	1.2537E-06
427.4	1.2665E-06
427.6	1.2795E-06
427.8	1.2927E-06
428	1.3031E-06
428.2	1.3107E-06
428.4	1.3184E-06
428.6	1.3261E-06
428.8	1.3338E-06
429	1.3417E-06
429.2	1.3495E-06
429.4	1.3574E-06
429.6	1.3654E-06
429.8	1.3734E-06
430	1.3832E-06
430.2	1.4007E-06
430.4	1.4184E-06
430.6	1.4363E-06
430.8	1.4544E-06
431	1.4728E-06
431.2	1.4913E-06
431.4	1.5102E-06
431.6	1.5292E-06
431.8	1.5485E-06
432	1.5582E-06
432.2	1.5658E-06
432.4	1.5734E-06
432.6	1.581E-06
432.8	1.5887E-06
433	1.5964E-06
433.2	1.6042E-06
433.4	1.6119E-06
433.6	1.6198E-06
433.8	1.6276E-06
434	1.6349E-06
434.2	1.6419E-06
434.4	1.6489E-06
434.6	1.6559E-06
434.8	1.663E-06
435	1.6701E-06
435.2	1.6773E-06
435.4	1.6844E-06
435.6	1.6917E-06
435.8	1.6989E-06
436	1.7064E-06
436.2	1.7141E-06
436.4	1.7218E-06
436.6	1.7296E-06
436.8	1.7374E-06
437	1.7453E-06
437.2	1.7532E-06
437.4	1.7611E-06
437.6	1.769E-06
437.8	1.777E-06
438	1.7891E-06
438.2	1.8055E-06
438.4	1.8221E-06
438.6	1.8387E-06
438.8	1.8556E-06
439	1.8726E-06
439.2	1.8897E-06
439.4	1.907E-06
439.6	1.9245E-06
439.8	1.9421E-06
440	1.9612E-06
440.2	1.9857E-06
440.4	2.0106E-06
440.6	2.0357E-06
440.8	2.0612E-06
441	2.087E-06
441.2	2.1131E-06
441.4	2.1396E-06
441.6	2.1664E-06
441.8	2.1935E-06
442	2.2012E-06
442.2	2.2038E-06
442.4	2.2065E-06
442.6	2.2091E-06
442.8	2.2118E-06
443	2.2145E-06
443.2	2.2171E-06
443.4	2.2198E-06
443.6	2.2225E-06
443.8	2.2252E-06
444	2.2339E-06
444.2	2.2454E-06
444.4	2.2569E-06
444.6	2.2685E-06
444.8	2.2801E-06
445	2.2918E-06
445.2	2.3036E-06
445.4	2.3154E-06
445.6	2.3273E-06
445.8	2.3392E-06
446	2.3488E-06
446.2	2.3568E-06
446.4	2.3649E-06
446.6	2.3729E-06
446.8	2.381E-06
447	2.3891E-06
447.2	2.3972E-06
447.4	2.4054E-06
447.6	2.4136E-06
447.8	2.4218E-06
448	2.4355E-06
448.2	2.4547E-06
448.4	2.474E-06
448.6	2.4935E-06
448.8	2.5131E-06
449	2.5329E-06
449.2	2.5529E-06
449.4	2.573E-06
449.6	2.5933E-06
449.8	2.6137E-06
450	1.6054E-07
450.2	8.7116e-08
450.4	6.0464e-08
450.6	4.416e-08
450.8	5.7942e-08
451.0	7.6025e-08
451.2	7.9429e-08
451.4	6.9129e-08
451.6	6.7415e-08
451.8	7.5344e-08
452.0	8.4206e-08
452.2	1.141e-07
452.4	1.5688e-07
452.6	2.0622e-07
452.8	2.5381e-07
453.0	2.8173e-07
453.2	2.4577e-07
453.4	2.1441e-07
453.6	1.0235e-07
453.8	4.1014e-08
454.0	2.6821e-08
454.2	7.6238e-08
454.4	1.6937e-07
454.6	9.3103e-08
454.8	5.118e-08
455.0	6.2189e-08
455.2	1.2163e-07
455.4	2.2217e-07
455.6	2.1175e-07
455.8	2.0183e-07
456.0	1.8426e-07
456.2	1.6822e-07
456.4	1.6704e-07
456.6	1.8202e-07
456.8	1.9834e-07
457.0	9.5982e-08
457.2	4.4505e-08
457.4	6.0304e-08
457.6	9.8734e-08
457.8	1.349e-07
458.0	1.2656e-07
458.2	1.1874e-07
458.4	1.3662e-07
458.6	1.6542e-07
458.8	1.5623e-07
459.0	1.3265e-07
459.2	1.1709e-07
459.4	1.2412e-07
459.6	1.3157e-07
459.8	1.5432e-07
460.0	1.9114e-07
460.2	1.5832e-07
460.4	9.4346e-08
460.6	5.7241e-08
460.8	6.9868e-08
461.0	8.528e-08
461.2	1.0527e-07
461.4	1.3142e-07
461.6	1.5995e-07
461.8	1.8726e-07
462.0	2.1924e-07
462.2	1.9413e-07
462.4	1.6487e-07
462.6	1.5094e-07
462.8	1.5936e-07
463.0	1.3405e-07
463.2	5.5992e-08
463.4	2.3387e-08
463.6	2.5004e-08
463.8	3.8529e-08
464.0	5.901e-08
464.2	8.8148e-08
464.4	1.2842e-07
464.6	1.4748e-07
464.8	1.6936e-07
465.0	1.247e-07
465.2	6.566e-08
465.4	3.7379e-08
465.6	9.3786e-08
465.8	2.3531e-07
466.0	2.1865e-07
466.2	1.9069e-07
466.4	1.5117e-07
466.6	1.0476e-07
466.8	7.2597e-08
467.0	7.6637e-08
467.2	8.4997e-08
467.4	8.6613e-08
467.6	8.6294e-08
467.8	8.3963e-08
468.0	7.6626e-08
468.2	6.993e-08
468.4	1.0061e-07
468.6	1.6914e-07
468.8	1.7062e-07
469.0	1.2914e-07
469.2	1.0103e-07
469.4	1.0075e-07
469.6	1.0047e-07
469.8	1.1272e-07
470.0	1.3702e-07
470.2	1.5328e-07
470.4	1.5931e-07
470.6	1.6471e-07
470.8	1.0191e-07
471.0	6.3051e-08
471.2	4.9178e-08
471.4	4.9053e-08
471.6	6.4116e-08
471.8	1.2082e-07
472.0	2.2766e-07
472.2	2.2334e-07
472.4	2.0378e-07
472.6	1.9231e-07
472.8	1.9173e-07
473.0	1.6628e-07
473.2	1.0723e-07
473.4	6.9149e-08
473.6	8.9045e-08
473.8	1.3705e-07
474.0	1.7794e-07
474.2	1.4587e-07
474.4	1.2566e-07
474.6	1.312e-07
474.8	1.3699e-07
475.0	1.6196e-07
475.2	2.0274e-07
475.4	2.4702e-07
475.6	2.6118e-07
475.8	2.6467e-07
476.0	2.0883e-07
476.2	1.6477e-07
476.4	1.0113e-07
476.6	5.3212e-08
476.8	3.2561e-08
477.0	7.7486e-08
477.2	1.7657e-07
477.4	1.4203e-07
477.6	1.1426e-07
477.8	1.0802e-07
478.0	1.189e-07
478.2	1.3087e-07
478.4	2.0077e-07
478.6	3.0852e-07
478.8	2.9995e-07
479.0	2.8174e-07
479.2	2.8703e-07
479.4	3.2866e-07
479.6	3.7634e-07
479.8	2.5948e-07
480.0	1.675e-07
480.2	2.0904e-07
480.4	3.0152e-07
480.6	3.8747e-07
480.8	3.8032e-07
481.0	3.7331e-07
481.2	4.6264e-07
481.4	6.1233e-07
481.6	7.1957e-07
481.8	8.1272e-07
482.0	9.5491e-07
482.2	1.2854e-06
482.4	1.7304e-06
482.6	2.4564e-06
482.8	3.5656e-06
483.0	5.3373e-06
483.2	8.1319e-06
483.4	1.2455e-05
483.6	1.9857e-05
483.8	3.1658e-05
484.0	5.3498e-05
484.2	9.4057e-05
484.4	1.5919e-04
484.6	2.6983e-04
484.8	4.7908e-04
485.0	8.7539e-04
485.2	0.00166
485.4	0.00333
485.6	0.00689
485.8	0.0157
486.0	0.03382
486.2	0.07707
486.4	0.17751
486.6	0.37762
486.8	0.64158
487.0	0.83966
487.2	0.91735
487.4	0.93054
487.6	0.93127
487.8	0.93325
488.0	0.93834
488.2	0.94398
488.4	0.94798
488.6	0.95055
488.8	0.95033
489.0	0.94865
489.2	0.94654
489.4	0.94387
489.6	0.94155
489.8	0.94081
490.0	0.9414
490.2	0.94338
490.4	0.94669
490.6	0.94978
490.8	0.95267
491.0	0.95506
491.2	0.9557
491.4	0.95524
491.6	0.95359
491.8	0.95083
492.0	0.94776
492.2	0.94399
492.4	0.9411
