600 DCLP.csv	LF101818_P109625	Gabriele Dröscher	01.12.2009 14:04	Lambda 19 UV/Vis	2023	Rev. 9B/9C
nm	%T					
300	-0,000985					
301	-0,004178					
302	-0,002853					
303	0,000546					
304	0,000318					
305	-0,004862					
306	0,001592					
307	0,000467					
308	-0,001774					
309	-0,002229					
310	-0,001116					
311	-0,002391					
312	-0,006108					
313	-0,007604					
314	0,000214					
315	-0,00582					
316	-0,011827					
317	-0,008267					
318	-0,011586					
319	-0,014762					
320	0,002778					
321	-0,000994					
322	-0,003676					
323	0,00211					
324	0,004167					
325	0,002837					
326	-0,004353					
327	-0,000244					
328	0,002985					
329	-0,001848					
330	-0,001636					
331	0,003229					
332	0,004916					
333	0,003166					
334	0,000407					
335	0,001925					
336	0,002479					
337	-0,002011					
338	0,001171					
339	0,003183					
340	0,004674					
341	0,002893					
342	0,000619					
343	0,002056					
344	0,002189					
345	0,006182					
346	0,012357					
347	0,022703					
348	0,037416					
349	0,0667					
350	0,132237					
351	0,232221					
352	0,364327					
353	0,547775					
354	0,79053					
355	1,127272					
356	1,580594					
357	2,179549					
358	2,925923					
359	3,770778					
360	4,776117					
361	6,160361					
362	7,681698					
363	8,941944					
364	9,793519					
365	10,191622					
366	10,487219					
367	10,532542					
368	9,792281					
369	9,000276					
370	8,917017					
371	8,590407					
372	7,393561					
373	6,813519					
374	7,989294					
375	9,157456					
376	8,581359					
377	7,850231					
378	10,325147					
379	15,540865					
380	18,796138					
381	16,502674					
382	12,288857					
383	9,368024					
384	7,66734					
385	6,16562					
386	4,457865					
387	3,390083					
388	3,544668					
389	5,325936					
390	9,650008					
391	18,679414					
392	32,373926					
393	47,012201					
394	56,457835					
395	57,536975					
396	54,962564					
397	53,211263					
398	53,301829					
399	52,338177					
400	48,685467					
401	44,004339					
402	42,244738					
403	45,059049					
404	50,305527					
405	52,99753					
406	50,214291					
407	42,321737					
408	34,617075					
409	31,4467					
410	32,124475					
411	34,885822					
412	36,97311					
413	35,483271					
414	29,48193					
415	20,32945					
416	13,143776					
417	11,600789					
418	13,59019					
419	15,198349					
420	14,057592					
421	10,107219					
422	5,468059					
423	1,975564					
424	0,590834					
425	0,325286					
426	0,256672					
427	0,289201					
428	0,45436					
429	0,905608					
430	1,51641					
431	1,952697					
432	2,041858					
433	1,728395					
434	1,273476					
435	1,106121					
436	1,284246					
437	1,651641					
438	2,025251					
439	2,26209					
440	2,322018					
441	2,216641					
442	1,999397					
443	1,775814					
444	1,543223					
445	1,256348					
446	0,970206					
447	0,738182					
448	0,60504					
449	0,558911					
450	0,551619					
451	0,561492					
452	0,561942					
453	0,509745					
454	0,437733					
455	0,36488					
456	0,315761					
457	0,293115					
458	0,294711					
459	0,32845					
460	0,359545					
461	0,363208					
462	0,35122					
463	0,327194					
464	0,289127					
465	0,258799					
466	0,246811					
467	0,269607					
468	0,320751					
469	0,384714					
470	0,456491					
471	0,502273					
472	0,512324					
473	0,48642					
474	0,44504					
475	0,407173					
476	0,395805					
477	0,431629					
478	0,533363					
479	0,703826					
480	0,908048					
481	1,087968					
482	1,202051					
483	1,212743					
484	1,129855					
485	0,998106					
486	0,86358					
487	0,764303					
488	0,713974					
489	0,702165					
490	0,725938					
491	0,769475					
492	0,83688					
493	0,921399					
494	1,022037					
495	1,130294					
496	1,259787					
497	1,417726					
498	1,608268					
499	1,812346					
500	2,00688					
501	2,163381					
502	2,239995					
503	2,190716					
504	2,03281					
505	1,782358					
506	1,496318					
507	1,229571					
508	1,027798					
509	0,901769					
510	0,836128					
511	0,812615					
512	0,825451					
513	0,856029					
514	0,871906					
515	0,863684					
516	0,825784					
517	0,747568					
518	0,653607					
519	0,549335					
520	0,471317					
521	0,423265					
522	0,393962					
523	0,395177					
524	0,424965					
525	0,465862					
526	0,517206					
527	0,554341					
528	0,582999					
529	0,579383					
530	0,533992					
531	0,484688					
532	0,424647					
533	0,361774					
534	0,323926					
535	0,30822					
536	0,314115					
537	0,347473					
538	0,412503					
539	0,514621					
540	0,635649					
541	0,746899					
542	0,833667					
543	0,860739					
544	0,831855					
545	0,745748					
546	0,625106					
547	0,511674					
548	0,429103					
549	0,389612					
550	0,394147					
551	0,462274					
552	0,602502					
553	0,871582					
554	1,264544					
555	1,664071					
556	1,951574					
557	2,055655					
558	1,973913					
559	1,695892					
560	1,260181					
561	0,795755					
562	0,473531					
563	0,327553					
564	0,244516					
565	0,202901					
566	0,182386					
567	0,178089					
568	0,176858					
569	0,190523					
570	0,222681					
571	0,257158					
572	0,311346					
573	0,406315					
574	0,546964					
575	0,756017					
576	1,032933					
577	1,42997					
578	1,900068					
579	2,410573					
580	2,944395					
581	3,478403					
582	3,977581					
583	4,41893					
584	4,804191					
585	5,157404					
586	5,523367					
587	6,021037					
588	6,780781					
589	7,969201					
590	9,702915					
591	12,206114					
592	15,461291					
593	19,562409					
594	24,459942					
595	30,246931					
596	37,068361					
597	45,322905					
598	54,458481					
599	63,651276					
600	72,480261					
601	80,152366					
602	86,257982					
603	90,436086					
604	92,752767					
605	94,184577					
606	95,298976					
607	96,279529					
608	96,706301					
609	96,807352					
610	96,455485					
611	96,087226					
612	95,691383					
613	95,378017					
614	95,06498					
615	95,115954					
616	95,210338					
617	95,427525					
618	95,749056					
619	95,985344					
620	96,30419					
621	96,432298					
622	96,483493					
623	96,351856					
624	96,091205					
625	95,658278					
626	95,196503					
627	94,921845					
628	94,669539					
629	94,639573					
630	94,822961					
631	95,243981					
632	95,726097					
633	96,226597					
634	96,723568					
635	97,066087					
636	97,200131					
637	97,097549					
638	96,879679					
639	96,547979					
640	96,044183					
641	95,624241					
642	95,310211					
643	95,187014					
644	95,398408					
645	95,505539					
646	95,968127					
647	96,424806					
648	96,864015					
649	97,232476					
650	97,401488					
651	97,366735					
652	97,218907					
653	96,703535					
654	96,036184					
655	95,469877					
656	94,773167					
657	94,393715					
658	94,052893					
659	93,965328					
660	94,101697					
661	94,48849					
662	95,119923					
663	95,721194					
664	96,31834					
665	96,799579					
666	97,155547					
667	97,276172					
668	97,105598					
669	96,831277					
670	96,234715					
671	95,547646					
672	94,811261					
673	94,09157					
674	93,488681					
675	93,096834					
676	93,000442					
677	92,960429					
678	93,343776					
679	93,756589					
680	94,455278					
681	95,188567					
682	95,796788					
683	96,452159					
684	96,956158					
685	97,070417					
686	97,094667					
687	96,854573					
688	96,510428					
689	95,932654					
690	95,343304					
691	94,633526					
692	94,092363					
693	93,605408					
694	93,320745					
695	93,269041					
696	93,109339					
697	93,467444					
698	93,935901					
699	94,382545					
700	95,041454					
701	95,679179					
702	96,181202					
703	96,762687					
704	97,009677					
705	97,429919					
706	97,533417					
707	97,36712					
708	97,120017					
709	96,882156					
710	96,452653					
711	96,167669					
712	95,717722					
713	95,488745					
714	95,265162					
715	95,069677					
716	95,049191					
717	95,229101					
718	95,258969					
719	95,530599					
720	95,78768					
721	95,949647					
722	96,072209					
723	96,138233					
724	96,046227					
725	96,162203					
726	95,804441					
727	95,503849					
728	95,241636					
729	94,873336					
730	94,582391					
731	94,063097					
732	93,793255					
733	93,694979					
734	93,44914					
735	93,3139					
736	93,390155					
737	93,671429					
738	93,778849					
739	94,014359					
740	94,395065					
741	94,803396					
742	94,887054					
743	95,220914					
744	95,500183					
745	95,537451					
746	95,471704					
747	95,53296					
748	95,192552					
749	94,920224					
750	94,56827					
751	94,170046					
752	93,749571					
753	93,239477					
754	92,913824					
755	92,530325					
756	92,084175					
757	91,957268					
758	91,925329					
759	91,746792					
760	91,860849					
761	91,795731					
762	91,997308					
763	92,353332					
764	92,669904					
765	92,943066					
766	93,225861					
767	93,292058					
768	93,5826					
769	93,708625					
770	93,965572					
771	94,013852					
772	93,781871					
773	93,701592					
774	93,326741					
775	93,307665					
776	92,843026					
777	92,611846					
778	92,050737					
779	91,912332					
780	91,518849					
781	91,251665					
782	91,089809					
783	90,774384					
784	90,761793					
785	90,504867					
786	90,538162					
787	90,490904					
788	90,589428					
789	90,691596					
790	90,992892					
791	91,050282					
792	91,232628					
793	91,469851					
794	91,388458					
795	91,788799					
796	91,929418					
797	92,073932					
798	91,96856					
799	92,05524					
800	91,960073					
801	91,938543					
802	91,607666					
803	91,361576					
804	91,395211					
805	91,220272					
806	90,829867					
807	90,616521					
808	90,148973					
809	89,958763					
810	89,510792					
811	89,270821					
812	89,025462					
813	88,748649					
814	88,355559					
815	88,153386					
816	87,88777					
817	87,611607					
818	87,309134					
819	87,275001					
820	87,379986					
821	87,205282					
822	86,738813					
823	86,78458					
824	86,551547					
825	86,314398					
826	86,141753					
827	86,387327					
828	85,818714					
829	85,818231					
830	85,825342					
831	85,554051					
832	85,5901					
833	85,256025					
834	84,800875					
835	84,935513					
836	85,062277					
837	84,9554					
838	84,653467					
839	84,673187					
840	85,105443					
841	84,92921					
842	84,200215					
843	84,807003					
844	84,303856					
845	84,316394					
846	84,394819					
847	83,410212					
848	82,803065					
849	82,844383					
850	81,083101					
851	80,486667					
852	79,891682					
853	78,169978					
854	77,64259					
855	76,146272					
856	74,304181					
857	71,952233					
858	71,188295					
859	69,104347					
860	67,208546					
861	65,864873					
862	65,700883					
863	64,10585					
864	63,76366					
865	63,387948					
866	63,274872					
867	62,697381					
868	62,921757					
869	63,804251					
870	64,433402					
871	65,112504					
872	66,360974					
873	66,435468					
874	68,160069					
875	68,74359					
876	67,331654					
877	66,922954					
878	67,006528					
879	64,30251					
880	61,856276					
881	61,814654					
882	58,854449					
883	57,990387					
884	50,247478					
885	49,462461					
886	45,2416					
887	42,185044					
888	37,939537					
889	34,679773					
890	28,996074					
891	26,198685					
892	22,760622					
893	19,475847					
894	16,472389					
895	14,364102					
896	13,513726					
897	11,296539					
898	8,97718					
899	8,471686					
900	7,684199					
